,,Burst Start,Burst End,Burst Duration,Edge Event,Interburst Interval,Total Cycle Time,Peaks per Burst,Peak Amp,Peak Time,Attack,Decay,Intraburst Frequency,Burst Area
MeanVar1,0.12025,0.12025,0.14825,0.027999999999999997,False,0.14375,0.17174999999999999,1,0.44124740539771895,0.13425,0.014000000000000012,0.013999999999999985,35.714285714285715,0.009294396255539279
MeanVar1,0.292,0.292,0.3225,0.030500000000000027,False,0.14375,0.17425000000000002,1,0.4733392753711208,0.30725,0.015250000000000041,0.015249999999999986,32.78688524590161,0.010760411319319275
MeanVar1,0.46625,0.46625,0.49475,0.028500000000000025,False,0.14200000000000002,0.17050000000000004,1,0.4470898804239432,0.48,0.013749999999999984,0.01475000000000004,35.08771929824558,0.009560418060293906
MeanVar1,0.63675,0.63675,0.6645,0.02774999999999994,False,0.14375000000000004,0.17149999999999999,1,0.44070023739067066,0.65075,0.014000000000000012,0.013749999999999929,36.036036036036116,0.009219585953225574
MeanVar1,0.80825,0.80825,0.8385,0.03025,False,0.14425,0.1745,1,0.4638694402511465,0.82325,0.015000000000000013,0.015249999999999986,33.057851239669425,0.01049341992326885
MeanVar1,0.98275,0.98275,1.011,0.028249999999999886,False,0.14200000000000013,0.17025,1,0.4466672714840634,0.9965,0.01375000000000004,0.014499999999999846,35.398230088495716,0.009538257220083366
MeanVar1,1.153,1.153,1.181,0.028000000000000025,False,0.14349999999999996,0.17149999999999999,1,0.44760138573519653,1.167,0.014000000000000012,0.014000000000000012,35.71428571428568,0.009381030078155182
MeanVar1,1.3245,1.3245,1.35525,0.030750000000000055,False,0.1439999999999999,0.17474999999999996,1,0.48128534670636414,1.3395000000000001,0.015000000000000124,0.01574999999999993,32.52032520325197,0.010992622194781494
MeanVar1,1.49925,1.49925,1.5275,0.02825000000000011,False,0.14249999999999985,0.17074999999999996,1,0.4423913057616007,1.5130000000000001,0.013750000000000151,0.014499999999999957,35.39823008849544,0.009439947268841262
MeanVar1,1.67,1.67,1.6975,0.02750000000000008,False,0.14375000000000004,0.17125000000000012,1,0.4366306867911004,1.68375,0.013750000000000151,0.013749999999999929,36.36363636363626,0.009068744093270513
MeanVar1,1.84125,1.84125,1.8715,0.030249999999999888,False,0.14500000000000024,0.17525000000000013,1,0.4615144824903655,1.85625,0.014999999999999902,0.015249999999999986,33.057851239669546,0.01044626563544401
MeanVar1,2.0165,2.0165,2.04475,0.028249999999999886,False,0.14250000000000007,0.17074999999999996,1,0.4439871642823846,2.0300000000000002,0.013500000000000068,0.014749999999999819,35.398230088495716,0.00948009027274285
MeanVar1,2.18725,2.18725,2.21525,0.028000000000000025,False,0.14374999999999982,0.17174999999999985,1,0.45072138822843566,2.20125,0.01399999999999979,0.014000000000000234,35.71428571428568,0.009444946584958699
MeanVar1,2.359,2.359,2.3895,0.03049999999999997,False,0.14475000000000016,0.17525000000000013,1,0.4693904198857737,2.37425,0.015249999999999986,0.015249999999999986,32.78688524590167,0.01068642484326482
MeanVar1,2.53425,2.53425,2.56225,0.028000000000000025,False,0.1419999999999999,0.16999999999999993,1,0.44244027702254,2.548,0.013749999999999929,0.014250000000000096,35.71428571428568,0.009349218689728234
MeanVar1,2.70425,2.70425,2.73275,0.028499999999999748,False,0.14425,0.17274999999999974,1,0.4439209826932259,2.7182500000000003,0.014000000000000234,0.014499999999999513,35.08771929824592,0.00946112980333111
MeanVar1,2.877,2.877,2.90725,0.03025000000000011,False,0.1445000000000003,0.1747500000000004,1,0.4669351361642744,2.8925,0.015500000000000291,0.014749999999999819,33.057851239669304,0.010549791165299013
MeanVar1,3.05175,3.05175,3.07975,0.028000000000000025,False,0.1419999999999999,0.16999999999999993,1,0.4469002120840083,3.06575,0.01399999999999979,0.014000000000000234,35.71428571428568,0.009429155157599844
MeanVar1,3.22175,3.22175,3.2510000000000003,0.02925000000000022,False,0.1447499999999997,0.17399999999999993,1,0.4538921014515495,3.23575,0.01399999999999979,0.01525000000000043,34.18803418803393,0.009888762928859702
MeanVar1,3.39575,3.39575,3.42575,0.029999999999999805,False,0.14375000000000027,0.17375000000000007,1,0.4656430105295378,3.411,0.015249999999999986,0.014749999999999819,33.33333333333355,0.010379164969358031
MeanVar1,3.5695,3.5695,3.597,0.027499999999999858,False,0.14300000000000024,0.1705000000000001,1,0.4378968301966133,3.5835,0.01399999999999979,0.013500000000000068,36.36363636363655,0.009098611542889497
MeanVar1,3.74,3.74,3.77,0.029999999999999805,False,0.14500000000000002,0.17499999999999982,1,0.45656906560545163,3.75425,0.014249999999999652,0.015750000000000153,33.33333333333355,0.01020184413790406
MeanVar1,3.915,3.915,3.94425,0.029249999999999776,False,0.14250000000000052,0.1717500000000003,1,0.4663065416120341,3.9295,0.014499999999999957,0.014749999999999819,34.18803418803445,0.010150856469410297
MeanVar1,4.08675,4.08675,4.11475,0.02799999999999958,False,0.14400000000000013,0.1719999999999997,1,0.45350611747026204,4.10075,0.013999999999999346,0.014000000000000234,35.71428571428625,0.009482331154067018
MeanVar1,4.25875,4.25875,4.289,0.030249999999999666,False,0.14524999999999988,0.17549999999999955,1,0.4624450187535798,4.2735,0.014750000000000263,0.015499999999999403,33.05785123966979,0.010483059706641512
MeanVar1,4.43425,4.43425,4.46225,0.02800000000000047,False,0.14250000000000007,0.17050000000000054,1,0.44234113222987576,4.448,0.013750000000000817,0.014249999999999652,35.71428571428512,0.009364816928201814
MeanVar1,4.60475,4.60475,4.63325,0.028500000000000192,False,0.14499999999999957,0.17349999999999977,1,0.44535057593774313,4.61875,0.014000000000000234,0.014499999999999957,35.087719298245375,0.009525607046674368
MeanVar1,4.77825,4.77825,4.8085,0.030250000000000554,False,0.14424999999999955,0.1745000000000001,1,0.4669039408379897,4.79375,0.015500000000000291,0.014750000000000263,33.057851239668814,0.010515344201841963
MeanVar1,4.95275,4.95275,4.9805,0.027750000000000163,False,0.1427499999999995,0.17049999999999965,1,0.4408559787186343,4.96675,0.014000000000000234,0.013749999999999929,36.036036036035824,0.009205204493461322
MeanVar1,5.12325,5.12325,5.15375,0.03049999999999997,False,0.14500000000000046,0.17550000000000043,1,0.4717522737558246,5.1377500000000005,0.014500000000000846,0.015999999999999126,32.78688524590167,0.010632934364167098
MeanVar1,5.29875,5.29875,5.32775,0.028999999999999915,False,0.1429999999999998,0.1719999999999997,1,0.45222136245320466,5.313,0.014249999999999652,0.014750000000000263,34.48275862068976,0.009829939951149645
MeanVar1,5.47075,5.47075,5.49825,0.027499999999999858,False,0.14475000000000016,0.17225000000000001,1,0.4374713969380724,5.4845,0.013749999999999929,0.013749999999999929,36.36363636363655,0.009073944890339334
MeanVar1,5.643,5.643,5.6735,0.03049999999999997,False,0.14500000000000046,0.17550000000000043,1,0.46298435207588945,5.65825,0.015249999999999986,0.015249999999999986,32.78688524590167,0.010538435647342165
MeanVar1,5.8185,5.8185,5.8465,0.02799999999999958,False,0.14250000000000007,0.17049999999999965,1,0.44538803290511747,5.8325000000000005,0.014000000000000234,0.013999999999999346,35.71428571428625,0.009412667744227873
MeanVar1,5.989,5.989,6.0185,0.029500000000000526,False,0.1454999999999993,0.17499999999999982,1,0.4566387311909774,6.00325,0.01425000000000054,0.015249999999999986,33.89830508474516,0.010020633307789075
MeanVar1,6.164,6.164,6.1935,0.029500000000000526,False,0.1435000000000004,0.17300000000000093,1,0.4584837358374418,6.17875,0.014750000000000263,0.014750000000000263,33.89830508474516,0.010108494826294917
MeanVar1,6.337000000000001,6.337000000000001,6.3645,0.02749999999999897,False,0.14425000000000043,0.1717499999999994,1,0.4358220663602172,6.350750000000001,0.013749999999999929,0.01374999999999904,36.363636363637724,0.009033778696790909
MeanVar1,6.50875,6.50875,6.53925,0.03049999999999997,False,0.1457499999999996,0.17624999999999957,1,0.4627269432594605,6.52375,0.01499999999999968,0.015500000000000291,32.78688524590167,0.010526100096202954
MeanVar1,6.685,6.685,6.712999999999999,0.02799999999999958,False,0.14250000000000096,0.17050000000000054,1,0.4417553364096851,6.69875,0.013750000000000817,0.014249999999998764,35.71428571428625,0.009340908040250256
MeanVar1,6.8555,6.8555,6.885,0.029499999999999638,False,0.1457500000000005,0.17525000000000013,1,0.4639948771630242,6.86975,0.014249999999999652,0.015249999999999986,33.89830508474618,0.01014795334502535
MeanVar1,7.03075,7.03075,7.06025,0.029499999999999638,False,0.1435000000000004,0.17300000000000004,1,0.45805447506057106,7.0455000000000005,0.014750000000000263,0.014749999999999375,33.89830508474618,0.010095082566114506
MeanVar1,7.20375,7.20375,7.23125,0.027499999999999858,False,0.14475000000000016,0.17225000000000001,1,0.4363225953313291,7.2177500000000006,0.014000000000000234,0.013499999999999623,36.36363636363655,0.009040934957375266
MeanVar1,7.376,7.376,7.4065,0.03049999999999997,False,0.14550000000000018,0.17600000000000016,1,0.46155019402997144,7.391,0.01499999999999968,0.015500000000000291,32.78688524590167,0.010500130226066077
MeanVar1,7.5520000000000005,7.5520000000000005,7.57975,0.027749999999999275,False,0.1429999999999998,0.17074999999999907,1,0.43273168680876095,7.5655,0.013499999999999623,0.014249999999999652,36.036036036036975,0.009112345467347894
MeanVar1,7.72275,7.72275,7.75225,0.029500000000000526,False,0.1457499999999996,0.17525000000000013,1,0.4586143514392063,7.737,0.01425000000000054,0.015249999999999986,33.89830508474516,0.010070204956306379
MeanVar1,7.898,7.898,7.9275,0.029500000000000526,False,0.14349999999999952,0.17300000000000004,1,0.46027277066103617,7.91275,0.014750000000000263,0.014750000000000263,33.89830508474516,0.01011033904450395
MeanVar1,8.071,8.071,8.0985,0.027499999999999858,False,0.14525000000000077,0.17275000000000063,1,0.4367751767124286,8.08475,0.013749999999999929,0.013749999999999929,36.36363636363655,0.009060520867883682
MeanVar1,8.24375,8.24375,8.27425,0.03049999999999997,False,0.145249999999999,0.17574999999999896,1,0.4649933396158131,8.259,0.015249999999999986,0.015249999999999986,32.78688524590167,0.010576392465840528
MeanVar1,8.4195,8.4195,8.447000000000001,0.027500000000001634,False,0.14349999999999952,0.17100000000000115,1,0.435772840359182,8.433250000000001,0.013750000000001705,0.013749999999999929,36.3636363636342,0.00907676318101516
MeanVar1,8.5905,8.5905,8.6205,0.02999999999999936,False,0.1462500000000002,0.17624999999999957,1,0.45370675072020317,8.6045,0.013999999999999346,0.016000000000000014,33.333333333334046,0.010134137013402034
MeanVar1,8.76675,8.76675,8.7955,0.028750000000000497,False,0.1429999999999989,0.1717499999999994,1,0.45886331546775805,8.78075,0.013999999999999346,0.014750000000001151,34.782608695651575,0.009891408511681425
MeanVar1,8.9385,8.9385,8.96675,0.028249999999999886,False,0.1460000000000008,0.17425000000000068,1,0.44217090943560405,8.9525,0.014000000000001123,0.014249999999998764,35.398230088495716,0.009386366545969704
MeanVar1,9.11275,9.11275,9.142999999999999,0.030249999999998778,False,0.14425000000000132,0.1745000000000001,1,0.46463858766833105,9.128,0.015249999999999986,0.014999999999998792,33.057851239670754,0.010434893585401589
MeanVar1,9.28725,9.28725,9.3145,0.02725000000000044,False,0.14499999999999957,0.17225000000000001,1,0.4325308234264035,9.30125,0.013999999999999346,0.013250000000001094,36.69724770642142,0.008929534916446727
MeanVar1,9.4595,9.4595,9.48975,0.030250000000000554,False,0.1462500000000002,0.17650000000000077,1,0.46190404972704324,9.4745,0.015000000000000568,0.015249999999999986,33.057851239668814,0.010478797944035662
MeanVar1,9.636000000000001,9.636000000000001,9.66375,0.027749999999999275,False,0.1429999999999989,0.17074999999999818,1,0.44157123343864424,9.649750000000001,0.013749999999999929,0.013999999999999346,36.036036036036975,0.00926679975510891
MeanVar1,9.80675,9.80675,9.83675,0.030000000000001137,False,0.14649999999999963,0.17650000000000077,1,0.46026931299498275,9.821,0.01425000000000054,0.015750000000000597,33.33333333333207,0.01023853367695432
MeanVar1,9.98325,9.98325,10.012,0.028750000000000497,False,0.1432500000000001,0.1720000000000006,1,0.45143469958748783,9.997250000000001,0.014000000000001123,0.014749999999999375,34.782608695651575,0.009751570596263186
MeanVar1,10.15525,10.15525,10.1835,0.028249999999999886,False,0.14599999999999902,0.1742499999999989,1,0.44452386350475914,10.16925,0.013999999999999346,0.01425000000000054,35.398230088495716,0.009413318632385526
MeanVar1,10.3295,10.3295,10.35975,0.030250000000000554,False,0.14450000000000074,0.1747500000000013,1,0.4655070214172686,10.345,0.01550000000000118,0.014749999999999375,33.057851239668814,0.010455376200044242
MeanVar1,10.50425,10.50425,10.5315,0.027249999999998664,False,0.14550000000000018,0.17274999999999885,1,0.4312219260067129,10.51825,0.013999999999999346,0.013249999999999318,36.697247706423816,0.008928401547210696
MeanVar1,10.677,10.677,10.7075,0.03049999999999997,False,0.14550000000000018,0.17600000000000016,1,0.47123031513930513,10.69225,0.015249999999999986,0.015249999999999986,32.78688524590167,0.01073541867296122
MeanVar1,10.853,10.853,10.88075,0.02775000000000105,False,0.14374999999999893,0.17149999999999999,1,0.4358784829881846,10.86675,0.013749999999999929,0.014000000000001123,36.03603603603467,0.009123711640491493
MeanVar1,11.0245,11.0245,11.05425,0.029749999999999943,False,0.14700000000000024,0.17675000000000018,1,0.4572771759300022,11.0385,0.014000000000001123,0.01574999999999882,33.613445378151326,0.010172800197380122
MeanVar1,11.20125,11.20125,11.2295,0.028249999999999886,False,0.1432500000000001,0.17149999999999999,1,0.44497495273857024,11.215,0.013749999999999929,0.014499999999999957,35.398230088495716,0.009492988359208508
MeanVar1,11.37275,11.37275,11.4015,0.028750000000000497,False,0.14700000000000024,0.17575000000000074,1,0.44667690613620026,11.386750000000001,0.014000000000001123,0.014749999999999375,34.782608695651575,0.009605120904621695
MeanVar1,11.5485,11.5485,11.57775,0.029249999999999332,False,0.14400000000000013,0.17324999999999946,1,0.45579095632334676,11.563,0.014499999999999957,0.014749999999999375,34.18803418803497,0.009983932172214346
MeanVar1,11.72175,11.72175,11.74975,0.02800000000000047,False,0.1457499999999996,0.17375000000000007,1,0.4469241931711211,11.73575,0.013999999999999346,0.014000000000001123,35.71428571428512,0.009391994214452944
MeanVar1,11.8955,11.8955,11.925999999999998,0.030499999999998195,False,0.14500000000000135,0.17549999999999955,1,0.4652346757997873,11.91125,0.015750000000000597,0.014749999999997598,32.786885245903576,0.010531902904931742
MeanVar1,12.071,12.071,12.0985,0.027499999999999858,False,0.14499999999999957,0.17249999999999943,1,0.4351842512694903,12.08475,0.013749999999999929,0.013749999999999929,36.36363636363655,0.009027016461958982
MeanVar1,12.2435,12.2435,12.27375,0.030250000000000554,False,0.14675000000000082,0.17700000000000138,1,0.46157032126526887,12.2585,0.015000000000000568,0.015249999999999986,33.057851239668814,0.010462871234722216
MeanVar1,12.4205,12.4205,12.448,0.027499999999999858,False,0.14400000000000013,0.17149999999999999,1,0.43779902660795117,12.43425,0.013749999999999929,0.013749999999999929,36.36363636363655,0.009115151793869736
MeanVar1,12.592,12.592,12.6225,0.03049999999999997,False,0.14674999999999905,0.17724999999999902,1,0.4674757808496086,12.6065,0.014499999999999957,0.016000000000000014,32.78688524590167,0.010606870347490308
MeanVar1,12.76925,12.76925,12.79725,0.02800000000000047,False,0.14349999999999952,0.17149999999999999,1,0.4362953780920631,12.783,0.013749999999999929,0.01425000000000054,35.71428571428512,0.00922065855380811
MeanVar1,12.94075,12.94075,12.97025,0.029500000000000526,False,0.14749999999999908,0.1769999999999996,1,0.45269432940260923,12.95475,0.014000000000001123,0.015499999999999403,33.89830508474516,0.009976682397933435
MeanVar1,13.11775,13.11775,13.14625,0.02850000000000108,False,0.1432500000000001,0.17175000000000118,1,0.4464846263135099,13.1315,0.013750000000001705,0.014749999999999375,35.08771929824429,0.009587095094629346
MeanVar1,13.2895,13.2895,13.31825,0.028750000000000497,False,0.14749999999999908,0.17624999999999957,1,0.45107340873976665,13.30375,0.01425000000000054,0.014499999999999957,34.782608695651575,0.009678139276959747
MeanVar1,13.46575,13.46575,13.49525,0.029500000000000526,False,0.14349999999999952,0.17300000000000004,1,0.4710480779576224,13.480500000000001,0.014750000000001151,0.014749999999999375,33.89830508474516,0.010350552134648435
MeanVar1,13.63875,13.63875,13.667,0.028249999999999886,False,0.14724999999999966,0.17549999999999955,1,0.4387307117655308,13.653,0.01425000000000054,0.013999999999999346,35.398230088495716,0.009284937963201716
MeanVar1,13.81425,13.81425,13.844000000000001,0.02975000000000172,False,0.14474999999999838,0.1745000000000001,1,0.4624177578561904,13.82925,0.015000000000000568,0.014750000000001151,33.613445378149315,0.010261327983946862
MeanVar1,13.98875,13.98875,14.01625,0.027499999999999858,False,0.1465000000000014,0.17400000000000126,1,0.43754956936270406,14.0025,0.013749999999999929,0.013749999999999929,36.36363636363655,0.009073734870943304
MeanVar1,14.16275,14.16275,14.193,0.030249999999998778,False,0.14550000000000018,0.17574999999999896,1,0.4640161828852671,14.1785,0.01574999999999882,0.014499999999999957,33.057851239670754,0.010457819844708907
MeanVar1,14.3385,14.3385,14.366,0.027499999999999858,False,0.1457499999999996,0.17324999999999946,1,0.43999073546159645,14.352500000000001,0.014000000000001123,0.013499999999998735,36.36363636363655,0.009119711968380928
MeanVar1,14.51175,14.51175,14.54225,0.03049999999999997,False,0.1457499999999996,0.17624999999999957,1,0.4718107529389386,14.52725,0.01550000000000118,0.014999999999998792,32.78688524590167,0.010738119537366586
MeanVar1,14.687999999999999,14.687999999999999,14.7155,0.027500000000001634,False,0.1457499999999996,0.17325000000000124,1,0.4331552330456339,14.702,0.014000000000001123,0.013500000000000512,36.3636363636342,0.008983046561501628
MeanVar1,14.86125,14.86125,14.8915,0.030250000000000554,False,0.1462500000000002,0.17650000000000077,1,0.46436595251855006,14.87625,0.015000000000000568,0.015249999999999986,33.057851239668814,0.010536367698881267
MeanVar1,15.03775,15.03775,15.06525,0.027499999999999858,False,0.14499999999999957,0.17249999999999943,1,0.43412043516808685,15.05175,0.013999999999999346,0.013500000000000512,36.36363636363655,0.009022046752314248
MeanVar1,15.21025,15.21025,15.2405,0.030250000000000554,False,0.14699999999999847,0.17724999999999902,1,0.46258877949899974,15.225,0.014749999999999375,0.01550000000000118,33.057851239668814,0.010471377331275886
MeanVar1,15.3875,15.3875,15.41525,0.02775000000000105,False,0.14424999999999955,0.1720000000000006,1,0.442473422192986,15.4015,0.014000000000001123,0.013749999999999929,36.03603603603467,0.009262460343106132
MeanVar1,15.5595,15.5595,15.59,0.03049999999999997,False,0.14724999999999966,0.17774999999999963,1,0.46978388448247727,15.574250000000001,0.014750000000001151,0.01574999999999882,32.78688524590167,0.010660013329720929
MeanVar1,15.73725,15.73725,15.76475,0.027499999999999858,False,0.14450000000000074,0.1720000000000006,1,0.43623370088263136,15.751,0.013749999999999929,0.013749999999999929,36.36363636363655,0.009094566712743158
MeanVar1,15.90925,15.90925,15.9395,0.030250000000000554,False,0.14724999999999788,0.17749999999999844,1,0.4599297099222509,15.92375,0.014499999999999957,0.015750000000000597,33.057851239668814,0.010378520513279687
MeanVar1,16.08675,16.08675,16.11475,0.028000000000002245,False,0.14399999999999835,0.1720000000000006,1,0.439222329855699,16.1005,0.013750000000001705,0.01425000000000054,35.71428571428285,0.009278476201942063
MeanVar1,16.25875,16.25875,16.2885,0.029749999999999943,False,0.1479999999999997,0.17774999999999963,1,0.46084259945178185,16.272750000000002,0.014000000000002899,0.015749999999997044,33.613445378151326,0.010231644616159524
MeanVar1,16.4365,16.4365,16.4645,0.028000000000002245,False,0.1437500000000007,0.17175000000000296,1,0.4540314733835267,16.45025,0.013750000000001705,0.01425000000000054,35.71428571428285,0.009593797454680838
MeanVar1,16.60825,16.60825,16.63775,0.02949999999999875,False,0.14824999999999733,0.17774999999999608,1,0.4531653856665405,16.62225,0.013999999999999346,0.015499999999999403,33.8983050847472,0.010005421491473201
MeanVar1,16.785999999999998,16.785999999999998,16.81425,0.02825000000000344,False,0.14349999999999952,0.17175000000000296,1,0.4444672188270044,16.79975,0.013750000000001705,0.014500000000001734,35.39823008849127,0.009462009886149599
MeanVar1,16.95775,16.95775,16.98725,0.02949999999999875,False,0.14775000000000205,0.1772500000000008,1,0.4535956520807192,16.972,0.01425000000000054,0.01524999999999821,33.8983050847472,0.009952209020230413
MeanVar1,17.135,17.135,17.16375,0.02874999999999872,False,0.1437500000000007,0.17249999999999943,1,0.45037217261268236,17.149,0.013999999999999346,0.014749999999999375,34.78260869565372,0.009702385192904388
MeanVar1,17.3075,17.3075,17.337,0.02949999999999875,False,0.1477499999999985,0.17724999999999724,1,0.4577412387845081,17.32175,0.01425000000000054,0.01524999999999821,33.8983050847472,0.010017242608678806
MeanVar1,17.48475,17.48475,17.51375,0.029000000000003467,False,0.14349999999999952,0.17250000000000298,1,0.45968070227905333,17.499,0.01425000000000054,0.014750000000002927,34.48275862068553,0.00994600263744927
MeanVar1,17.65725,17.65725,17.6865,0.029249999999997556,False,0.14775000000000205,0.1769999999999996,1,0.4500464341608367,17.6715,0.01425000000000054,0.014999999999997016,34.188034188037044,0.009810001968713377
MeanVar1,17.83425,17.83425,17.86325,0.028999999999999915,False,0.14399999999999835,0.17299999999999827,1,0.45489888010066015,17.8485,0.01425000000000054,0.014749999999999375,34.48275862068976,0.009870322995331702
MeanVar1,18.00725,18.00725,18.035999999999998,0.02874999999999872,False,0.14800000000000324,0.17675000000000196,1,0.44936651426059915,18.021250000000002,0.014000000000002899,0.014749999999995822,34.78260869565372,0.009668542443852126
MeanVar1,18.184,18.184,18.21325,0.029249999999997556,False,0.1437500000000007,0.17299999999999827,1,0.4571923934074919,18.19825,0.01425000000000054,0.014999999999997016,34.188034188037044,0.009982837149219343
MeanVar1,18.357,18.357,18.386,0.028999999999999915,False,0.14800000000000324,0.17700000000000315,1,0.4573531560805064,18.37125,0.01425000000000054,0.014749999999999375,34.48275862068976,0.009859668475356027
MeanVar1,18.534000000000002,18.534000000000002,18.563,0.028999999999996362,False,0.1440000000000019,0.17299999999999827,1,0.4627388426308803,18.54825,0.014249999999996987,0.014749999999999375,34.48275862069398,0.010057922192820057
MeanVar1,18.707,18.707,18.736,0.028999999999999915,False,0.14849999999999852,0.17749999999999844,1,0.448832696552479,18.72125,0.01425000000000054,0.014749999999999375,34.48275862068976,0.009687704224792818
MeanVar1,18.8845,18.8845,18.9135,0.028999999999999915,False,0.1437500000000007,0.17275000000000063,1,0.45954643257023964,18.898500000000002,0.014000000000002899,0.014999999999997016,34.48275862068976,0.009962289289401575
MeanVar1,19.05725,19.05725,19.08625,0.028999999999999915,False,0.14849999999999852,0.17749999999999844,1,0.45049014684381483,19.0715,0.01425000000000054,0.014749999999999375,34.48275862068976,0.009729367213399127
MeanVar1,19.23475,19.23475,19.2635,0.028750000000002274,False,0.14399999999999835,0.17275000000000063,1,0.45595853664366215,19.24875,0.014000000000002899,0.014749999999999375,34.78260869564942,0.009850765798517208
MeanVar1,19.4075,19.4075,19.437,0.029500000000002302,False,0.1479999999999997,0.177500000000002,1,0.4601804356533894,19.42175,0.01425000000000054,0.015250000000001762,33.898305084743114,0.010082011061261796
MeanVar1,19.585,19.585,19.614,0.028999999999999915,False,0.1437500000000007,0.17275000000000063,1,0.45885420606340455,19.59925,0.01425000000000054,0.014749999999999375,34.48275862068976,0.009938409133114758
MeanVar1,19.75775,19.75775,19.78725,0.02949999999999875,False,0.14849999999999852,0.17799999999999727,1,0.4540873735756468,19.772000000000002,0.01425000000000054,0.01524999999999821,33.8983050847472,0.00995202302907331
MeanVar1,19.93575,19.93575,19.96425,0.02850000000000108,False,0.1437500000000007,0.1722500000000018,1,0.4512964773514553,19.9495,0.013750000000001705,0.014749999999999375,35.08771929824429,0.009677642337971358
MeanVar1,20.108,20.108,20.1375,0.02949999999999875,False,0.14849999999999852,0.17799999999999727,1,0.45575063256553733,20.12225,0.01425000000000054,0.01524999999999821,33.8983050847472,0.010005629501635086
MeanVar1,20.285999999999998,20.285999999999998,20.3145,0.02850000000000108,False,0.1440000000000019,0.17250000000000298,1,0.4492318303670031,20.3,0.014000000000002899,0.014499999999998181,35.08771929824429,0.009612830841134856
MeanVar1,20.4585,20.4585,20.4885,0.029999999999997584,False,0.14800000000000324,0.17800000000000082,1,0.46477251954705245,20.47275,0.01425000000000054,0.015749999999997044,33.333333333336014,0.010320642852436076
MeanVar1,20.6365,20.6365,20.66475,0.028249999999999886,False,0.14424999999999955,0.17249999999999943,1,0.44914760642196755,20.65025,0.013749999999998153,0.014500000000001734,35.398230088495716,0.009558806550597666
MeanVar1,20.809,20.809,20.83875,0.029749999999999943,False,0.14824999999999733,0.17799999999999727,1,0.4596597921403943,20.82325,0.01425000000000054,0.015499999999999403,33.613445378151326,0.01020624544263546
MeanVar1,20.987,20.987,21.015,0.028000000000002245,False,0.14450000000000074,0.17250000000000298,1,0.44640659354932655,21.00075,0.013750000000001705,0.01425000000000054,35.71428571428285,0.009436574614654082
MeanVar1,21.1595,21.1595,21.1895,0.029999999999997584,False,0.14825000000000088,0.17824999999999847,1,0.4628496746143659,21.173750000000002,0.01425000000000054,0.015749999999997044,33.333333333336014,0.010354715520216341
MeanVar1,21.33775,21.33775,21.3655,0.02775000000000105,False,0.14474999999999838,0.17249999999999943,1,0.4438688147517091,21.3515,0.013750000000001705,0.013999999999999346,36.03603603603467,0.009313385466135719
MeanVar1,21.51025,21.51025,21.541,0.030750000000001165,False,0.14700000000000202,0.17775000000000318,1,0.4770120814981753,21.52525,0.015000000000000568,0.015750000000000597,32.5203252032508,0.01086501040687942
MeanVar1,21.688000000000002,21.688000000000002,21.71575,0.0277499999999975,False,0.14525000000000077,0.17299999999999827,1,0.4419809100290042,21.70175,0.013749999999998153,0.013999999999999346,36.036036036039285,0.009246194531631438
MeanVar1,21.861,21.861,21.8915,0.03049999999999997,False,0.14699999999999847,0.17749999999999844,1,0.4668415099985868,21.87575,0.014749999999999375,0.015750000000000597,32.78688524590167,0.010614405248104275
MeanVar1,22.0385,22.0385,22.066,0.027499999999999858,False,0.14550000000000196,0.17300000000000182,1,0.4398239778653745,22.052500000000002,0.014000000000002899,0.013499999999996959,36.36363636363655,0.009159040625864426
MeanVar1,22.2115,22.2115,22.241999999999997,0.03049999999999642,False,0.14675000000000438,0.1772500000000008,1,0.467138711528143,22.22625,0.014749999999999375,0.015749999999997044,32.78688524590549,0.010633076939689083
MeanVar1,22.38875,22.38875,22.4165,0.0277499999999975,False,0.146250000000002,0.1739999999999995,1,0.45389797224852074,22.403,0.014249999999996987,0.013500000000000512,36.036036036039285,0.009453389999948532
MeanVar1,22.56275,22.56275,22.5935,0.030749999999997613,False,0.1457499999999996,0.17649999999999721,1,0.48814329682218416,22.57825,0.015499999999999403,0.01524999999999821,32.52032520325456,0.011138353241858561
MeanVar1,22.73925,22.73925,22.7665,0.027250000000002217,False,0.14724999999999966,0.17450000000000188,1,0.4359721753589292,22.753,0.013750000000001705,0.013500000000000512,36.697247706419034,0.00899731981134378
MeanVar1,22.91375,22.91375,22.944000000000003,0.03025000000000233,False,0.14574999999999605,0.17599999999999838,1,0.47047942731657366,22.9295,0.015750000000000597,0.014500000000001734,33.057851239666874,0.010626179947056474
MeanVar1,23.08975,23.08975,23.11725,0.027499999999999858,False,0.14750000000000085,0.1750000000000007,1,0.4418447087799493,23.1035,0.013750000000001705,0.013749999999998153,36.36363636363655,0.009149809956412139
MeanVar1,23.26475,23.26475,23.295,0.03025000000000233,False,0.14499999999999957,0.1752500000000019,1,0.46990173426175885,23.28025,0.015499999999999403,0.014750000000002927,33.057851239666874,0.01054863641418232
MeanVar1,23.44,23.44,23.468000000000004,0.028000000000002245,False,0.1474999999999973,0.17549999999999955,1,0.45375351000892494,23.454,0.013999999999999346,0.014000000000002899,35.71428571428285,0.009494083298458765
MeanVar1,23.6155,23.6155,23.64575,0.030249999999998778,False,0.14450000000000074,0.17474999999999952,1,0.48026571396246764,23.63075,0.01524999999999821,0.015000000000000568,33.057851239670754,0.010734056457144411
MeanVar1,23.79025,23.79025,23.81825,0.027999999999998693,False,0.14850000000000207,0.17650000000000077,1,0.44550144034889194,23.80425,0.013999999999999346,0.013999999999999346,35.714285714287385,0.00937169197583291
MeanVar1,23.96675,23.96675,23.9965,0.029749999999999943,False,0.14424999999999955,0.1739999999999995,1,0.4665542670373108,23.9815,0.014749999999999375,0.015000000000000568,33.613445378151326,0.010309333517536594
MeanVar1,24.14075,24.14075,24.16925,0.02850000000000108,False,0.14874999999999972,0.1772500000000008,1,0.4509161189110429,24.15475,0.013999999999999346,0.014500000000001734,35.08771929824429,0.00959317137922739
MeanVar1,24.318,24.318,24.34725,0.029249999999997556,False,0.1440000000000019,0.17324999999999946,1,0.45943423142365447,24.332250000000002,0.01425000000000054,0.014999999999997016,34.188034188037044,0.010047337638842855
MeanVar1,24.49125,24.49125,24.52075,0.02949999999999875,False,0.1479999999999997,0.17749999999999844,1,0.4709595627199299,24.50575,0.014499999999998181,0.015000000000000568,33.8983050847472,0.010275743504042938
MeanVar1,24.66875,24.66875,24.69775,0.028999999999999915,False,0.1440000000000019,0.17300000000000182,1,0.4569233091598952,24.683,0.01425000000000054,0.014749999999999375,34.48275862068976,0.009890774751369751
MeanVar1,24.84175,24.84175,24.871,0.029249999999997556,False,0.14874999999999972,0.17799999999999727,1,0.45744377730539015,24.856,0.01425000000000054,0.014999999999997016,34.188034188037044,0.00998669085138578
MeanVar1,25.01975,25.01975,25.04825,0.02850000000000108,False,0.1440000000000019,0.17250000000000298,1,0.4515267475438243,25.03375,0.014000000000002899,0.014499999999998181,35.08771929824429,0.009691960580082804
MeanVar1,25.19225,25.19225,25.22175,0.02949999999999875,False,0.14874999999999972,0.17824999999999847,1,0.45926051043299304,25.206500000000002,0.01425000000000054,0.01524999999999821,33.8983050847472,0.010097993957805553
MeanVar1,25.3705,25.3705,25.399,0.02850000000000108,False,0.1440000000000019,0.17250000000000298,1,0.45868643294962863,25.38475,0.01425000000000054,0.01425000000000054,35.08771929824429,0.009798023420057532
MeanVar1,25.543000000000003,25.543000000000003,25.573,0.029999999999997584,False,0.14825000000000088,0.17824999999999847,1,0.4643072905344069,25.55725,0.014249999999996987,0.015750000000000597,33.333333333336014,0.010364228744441525
MeanVar1,25.72125,25.72125,25.74925,0.027999999999998693,False,0.14450000000000074,0.17249999999999943,1,0.4452725889683038,25.735,0.013749999999998153,0.01425000000000054,35.714285714287385,0.009400222054614856
MeanVar1,25.89375,25.89375,25.924,0.030249999999998778,False,0.1479999999999997,0.17824999999999847,1,0.4644495815153419,25.90825,0.014499999999998181,0.015750000000000597,33.057851239670754,0.010462168998801428
MeanVar1,26.072,26.072,26.0995,0.027499999999999858,False,0.14499999999999957,0.17249999999999943,1,0.442775113718643,26.08575,0.013750000000001705,0.013749999999998153,36.36363636363655,0.009239763916593285
MeanVar1,26.2445,26.2445,26.27525,0.030750000000001165,False,0.14724999999999966,0.17800000000000082,1,0.47517528850581914,26.2595,0.015000000000000568,0.015750000000000597,32.5203252032508,0.01084770272980124
MeanVar1,26.4225,26.4225,26.45,0.027499999999999858,False,0.1457499999999996,0.17324999999999946,1,0.4518348140811238,26.43625,0.013750000000001705,0.013749999999998153,36.36363636363655,0.009393014478485324
MeanVar1,26.59575,26.59575,26.625999999999998,0.030249999999998778,False,0.14675000000000082,0.1769999999999996,1,0.4682768762347373,26.61075,0.015000000000000568,0.01524999999999821,33.057851239670754,0.010623200940282613
MeanVar1,26.77275,26.77275,26.80025,0.027499999999999858,False,0.146250000000002,0.17375000000000185,1,0.43981094769344276,26.78675,0.014000000000002899,0.013499999999996959,36.36363636363655,0.009130595202121613
MeanVar1,26.9465,26.9465,26.976999999999997,0.03049999999999642,False,0.146250000000002,0.1767499999999984,1,0.4687686865871774,26.961750000000002,0.015250000000001762,0.015249999999994657,32.78688524590549,0.010670397918287795
MeanVar1,27.12325,27.12325,27.15075,0.027499999999999858,False,0.14649999999999963,0.1739999999999995,1,0.44218754439496316,27.13725,0.014000000000002899,0.013499999999996959,36.36363636363655,0.00916219427124015
MeanVar1,27.29725,27.29725,27.328000000000003,0.030750000000004718,False,0.1454999999999984,0.17625000000000313,1,0.4813133122153424,27.31275,0.015500000000002956,0.015250000000001762,32.52032520324704,0.010984294046443775
MeanVar1,27.4735,27.4735,27.500999999999998,0.027499999999996305,False,0.1472500000000032,0.17474999999999952,1,0.4488921258965022,27.48725,0.013749999999998153,0.013749999999998153,36.36363636364125,0.009298850431964377
MeanVar1,27.64825,27.64825,27.6785,0.030249999999998778,False,0.14525000000000077,0.17549999999999955,1,0.4722139172617832,27.66375,0.015499999999999403,0.014749999999999375,33.057851239670754,0.01063823511474588
MeanVar1,27.82375,27.82375,27.85125,0.027499999999999858,False,0.14750000000000085,0.1750000000000007,1,0.4458044909019403,27.837500000000002,0.013750000000001705,0.013749999999998153,36.36363636363655,0.009231759935751054
MeanVar1,27.99875,27.99875,28.029,0.030249999999998778,False,0.14499999999999957,0.17524999999999835,1,0.47279115912895087,28.01425,0.015499999999999403,0.014749999999999375,33.057851239670754,0.0106149791945091
MeanVar1,28.174,28.174,28.2015,0.027499999999999858,False,0.1479999999999997,0.17549999999999955,1,0.4385654823691342,28.188,0.013999999999999346,0.013500000000000512,36.36363636363655,0.009080365142918873
MeanVar1,28.3495,28.3495,28.38,0.03049999999999997,False,0.1440000000000019,0.17450000000000188,1,0.4883969991731285,28.36475,0.015250000000001762,0.01524999999999821,32.78688524590167,0.010968384610626167
MeanVar1,28.524,28.524,28.552,0.027999999999998693,False,0.14750000000000085,0.17549999999999955,1,0.445654068787127,28.538,0.013999999999999346,0.013999999999999346,35.714285714287385,0.009332822818124609
MeanVar1,28.6995,28.6995,28.7295,0.030000000000001137,False,0.14474999999999838,0.17474999999999952,1,0.47145180209574217,28.714750000000002,0.015250000000001762,0.014749999999999375,33.33333333333207,0.010511685107607902
MeanVar1,28.87425,28.87425,28.9025,0.028249999999999886,False,0.1479999999999997,0.17624999999999957,1,0.44931796252893086,28.88825,0.013999999999999346,0.01425000000000054,35.398230088495716,0.009470233113206217
MeanVar1,29.0505,29.0505,29.08025,0.029749999999999943,False,0.14424999999999955,0.1739999999999995,1,0.47014757755996917,29.0655,0.015000000000000568,0.014749999999999375,33.613445378151326,0.010401894808118125
MeanVar1,29.2245,29.2245,29.253,0.02850000000000108,False,0.14825000000000088,0.17675000000000196,1,0.45962678915701816,29.23875,0.01425000000000054,0.01425000000000054,35.08771929824429,0.009764506495858869
MeanVar1,29.40125,29.40125,29.430999999999997,0.02974999999999639,False,0.1440000000000019,0.1737499999999983,1,0.48212675476133693,29.416,0.014749999999999375,0.014999999999997016,33.61344537815534,0.010633046321068035
MeanVar1,29.575,29.575,29.60375,0.028750000000002274,False,0.14899999999999736,0.17774999999999963,1,0.44853109973798366,29.58925,0.01425000000000054,0.014500000000001734,34.78260869564942,0.009629623541736508
MeanVar1,29.75275,29.75275,29.78175,0.028999999999999915,False,0.1440000000000019,0.17300000000000182,1,0.4589567195576342,29.767,0.01425000000000054,0.014749999999999375,34.48275862068976,0.00994200087857528
MeanVar1,29.92575,29.92575,29.95475,0.028999999999999915,False,0.14874999999999972,0.17774999999999963,1,0.4547267159478081,29.93975,0.013999999999999346,0.015000000000000568,34.48275862068976,0.009841352102635873
MeanVar1,30.1035,30.1035,30.13225,0.02874999999999872,False,0.1437500000000007,0.17249999999999943,1,0.45558122078052166,30.1175,0.013999999999999346,0.014749999999999375,34.78260869565372,0.009822857786089672
MeanVar1,30.276,30.276,30.30575,0.029749999999999943,False,0.14849999999999852,0.17824999999999847,1,0.4730171810430233,30.2905,0.014500000000001734,0.01524999999999821,33.613445378151326,0.010401364228285859
MeanVar1,30.45425,30.45425,30.48275,0.02850000000000108,False,0.1440000000000019,0.17250000000000298,1,0.46181810212362434,30.468,0.013750000000001705,0.014749999999999375,35.08771929824429,0.009870826167449385
MeanVar1,30.62675,30.62675,30.6565,0.029749999999999943,False,0.14849999999999852,0.17824999999999847,1,0.46035825003952424,30.641000000000002,0.01425000000000054,0.015499999999999403,33.613445378151326,0.010194825673838882
MeanVar1,30.805,30.805,30.83325,0.028249999999999886,False,0.14424999999999955,0.17249999999999943,1,0.44639400831505227,30.81875,0.013750000000001705,0.014499999999998181,35.398230088495716,0.009481800311876126
MeanVar1,30.9775,30.9775,31.00775,0.03025000000000233,False,0.1479999999999997,0.17825000000000202,1,0.46409228095668853,30.99175,0.01425000000000054,0.01600000000000179,33.057851239666874,0.01041864900752932
MeanVar1,31.15575,31.15575,31.18375,0.027999999999998693,False,0.14450000000000074,0.17249999999999943,1,0.4449082336290129,31.1695,0.013749999999998153,0.01425000000000054,35.714285714287385,0.009385792440933695
MeanVar1,31.32825,31.32825,31.35875,0.03049999999999997,False,0.14750000000000085,0.17800000000000082,1,0.4803196837727834,31.343,0.014749999999999375,0.015750000000000597,32.78688524590167,0.010861946249919728
MeanVar1,31.50625,31.50625,31.534000000000002,0.02775000000000105,False,0.14524999999999721,0.17299999999999827,1,0.44783453017122776,31.52,0.013749999999998153,0.014000000000002899,36.03603603603467,0.009360164322266896
MeanVar1,31.67925,31.67925,31.70975,0.03049999999999997,False,0.14724999999999966,0.17774999999999963,1,0.4708761014665339,31.694,0.014749999999999375,0.015750000000000597,32.78688524590167,0.010710116400854602
MeanVar1,31.857,31.857,31.8845,0.027499999999999858,False,0.14624999999999844,0.1737499999999983,1,0.4430246431632513,31.871000000000002,0.014000000000002899,0.013499999999996959,36.36363636363655,0.009206406274764161
MeanVar1,32.03075,32.03075,32.06125,0.030500000000003524,False,0.146250000000002,0.1767500000000055,1,0.47209717821278546,32.046,0.015250000000001762,0.015250000000001762,32.78688524589785,0.010738469632159716
MeanVar1,32.2075,32.2075,32.235,0.027499999999996305,False,0.14724999999999966,0.17474999999999596,1,0.4406347268675404,32.2215,0.013999999999995794,0.013500000000000512,36.36363636364125,0.009111071256540197
MeanVar1,32.38225,32.38225,32.413000000000004,0.030750000000004718,False,0.14499999999999602,0.17575000000000074,1,0.4910789817919934,32.398,0.01575000000000415,0.015000000000000568,32.52032520324704,0.011127985734006146
MeanVar1,32.558,32.558,32.5855,0.02750000000000341,False,0.14799999999999613,0.17549999999999955,1,0.44619486188967794,32.57175,0.013750000000001705,0.013750000000001705,36.363636363631855,0.009242129556641786
MeanVar1,32.7335,32.7335,32.76375,0.03025000000000233,False,0.14474999999999483,0.17499999999999716,1,0.4728257118874276,32.749,0.015500000000002956,0.014749999999999375,33.057851239666874,0.010591393051996056
MeanVar1,32.9085,32.9085,32.9365,0.028000000000005798,False,0.14849999999999852,0.17650000000000432,1,0.44760207315494466,32.9225,0.014000000000002899,0.014000000000002899,35.71428571427832,0.009396481113227205
MeanVar1,33.085,33.085,33.11475,0.029749999999999943,False,0.14424999999999955,0.1739999999999995,1,0.47080487977743996,33.09975,0.014749999999999375,0.015000000000000568,33.613445378151326,0.010401175126367103
MeanVar1,33.259,33.259,33.2875,0.02850000000000108,False,0.1492500000000021,0.17775000000000318,1,0.44950906495153387,33.273,0.014000000000002899,0.014499999999998181,35.08771929824429,0.009578642180416463
MeanVar1,33.43675,33.43675,33.466,0.029249999999997556,False,0.14374999999999716,0.1729999999999947,1,0.47372674817478244,33.451,0.014249999999996987,0.015000000000000568,34.188034188037044,0.010313415116062798
MeanVar1,33.60975,33.60975,33.639,0.02925000000000466,False,0.149249999999995,0.17849999999999966,1,0.457134116997715,33.624,0.014250000000004093,0.015000000000000568,34.18803418802874,0.009951911307863059
MeanVar1,33.78825,33.78825,33.81675,0.02850000000000108,False,0.14424999999999955,0.17275000000000063,1,0.45153138988431846,33.802,0.013750000000001705,0.014749999999999375,35.08771929824429,0.009659859504574297
MeanVar1,33.961,33.961,33.99075,0.029749999999999943,False,0.14874999999999972,0.17849999999999966,1,0.45993296107865045,33.97525,0.014250000000004093,0.01549999999999585,33.613445378151326,0.010196759658000022
MeanVar1,34.1395,34.1395,34.1675,0.027999999999998693,False,0.14500000000000313,0.17300000000000182,1,0.44771940659040044,34.1535,0.014000000000002899,0.013999999999995794,35.714285714287385,0.009441513291192456
MeanVar1,34.3125,34.3125,34.343,0.030500000000003524,False,0.14774999999999494,0.17824999999999847,1,0.47306507719334406,34.3275,0.015000000000000568,0.015500000000002956,32.78688524589785,0.010725093652772692
MeanVar1,34.49075,34.49075,34.51875,0.027999999999998693,False,0.1457499999999996,0.1737499999999983,1,0.46382921091607554,34.50475,0.014000000000002899,0.013999999999995794,35.714285714287385,0.009713314754873944
MeanVar1,34.6645,34.6645,34.695,0.030500000000003524,False,0.14650000000000318,0.1770000000000067,1,0.468978313431387,34.67975,0.015250000000001762,0.015250000000001762,32.78688524589785,0.010678245325534217
MeanVar1,34.8415,34.8415,34.869,0.027499999999996305,False,0.14750000000000085,0.17499999999999716,1,0.4450509322018444,34.8555,0.013999999999995794,0.013500000000000512,36.36363636364125,0.009212892232952252
MeanVar1,35.0165,35.0165,35.047,0.03049999999999642,False,0.14525000000000432,0.17575000000000074,1,0.47285367581832405,35.03225,0.015749999999997044,0.014749999999999375,32.78688524590549,0.01067944286926857
MeanVar1,35.19225,35.19225,35.22,0.0277499999999975,False,0.14874999999999972,0.17649999999999721,1,0.4462802269564635,35.206250000000004,0.014000000000002899,0.0137499999999946,36.036036036039285,0.00931528732453128
MeanVar1,35.36875,35.36875,35.39875,0.030000000000001137,False,0.14424999999999955,0.17425000000000068,1,0.4823520098429632,35.38375,0.015000000000000568,0.015000000000000568,33.33333333333207,0.010695981034882986
MeanVar1,35.543,35.543,35.57175,0.028750000000002274,False,0.149249999999995,0.17799999999999727,1,0.4568870710134193,35.557,0.014000000000002899,0.014749999999999375,34.78260869564942,0.009800092867279935
MeanVar1,35.721,35.721,35.75,0.029000000000003467,False,0.14424999999999955,0.173250000000003,1,0.4584288256365278,35.73525,0.014250000000004093,0.014749999999999375,34.48275862068553,0.009911380428446678
MeanVar1,35.89425,35.89425,35.924,0.029749999999999943,False,0.1490000000000009,0.17875000000000085,1,0.4601090654354295,35.908500000000004,0.014250000000004093,0.01549999999999585,33.613445378151326,0.01017153441160779
MeanVar1,36.073,36.073,36.101,0.027999999999998693,False,0.14475000000000193,0.17275000000000063,1,0.44731164885760777,36.08675,0.013750000000001705,0.014249999999996987,35.714285714287385,0.009461876067794682
MeanVar1,36.24575,36.24575,36.275999999999996,0.030249999999995225,False,0.14850000000000563,0.17875000000000085,1,0.46689833330508934,36.26025,0.014499999999998181,0.015749999999997044,33.05785123967464,0.010509930476895218
MeanVar1,36.4245,36.4245,36.45225,0.0277499999999975,False,0.1457499999999996,0.1734999999999971,1,0.4556823419521754,36.4385,0.013999999999995794,0.013750000000001705,36.036036036039285,0.009525018850087814
MeanVar1,36.598,36.598,36.6285,0.030500000000003524,False,0.14674999999999727,0.1772500000000008,1,0.476867923675328,36.61325,0.015250000000001762,0.015250000000001762,32.78688524589785,0.010861499826426632
MeanVar1,36.77525,36.77525,36.80275,0.02750000000000341,False,0.14774999999999494,0.17524999999999835,1,0.4429724289217007,36.78925,0.014000000000002899,0.013500000000000512,36.363636363631855,0.00917554560306374
MeanVar1,36.9505,36.9505,36.98075,0.03025000000000233,False,0.1454999999999984,0.17575000000000074,1,0.47346856851250163,36.966,0.015500000000002956,0.014749999999999375,33.057851239666874,0.010661729256913744
MeanVar1,37.12625,37.12625,37.15425,0.027999999999998693,False,0.14875000000000682,0.1767500000000055,1,0.448921414334854,37.14,0.013750000000001705,0.014249999999996987,35.714285714287385,0.009418689002489093
MeanVar1,37.303000000000004,37.303000000000004,37.333,0.02999999999999403,False,0.14424999999999955,0.17424999999999358,1,0.48127173168358917,37.318,0.014999999999993463,0.015000000000000568,33.333333333339965,0.010642037557438878
MeanVar1,37.47725,37.47725,37.507,0.029749999999999943,False,0.1490000000000009,0.17875000000000085,1,0.4788859609856072,37.49175,0.014500000000005286,0.015249999999994657,33.613445378151326,0.010518281957372666
MeanVar1,37.656,37.656,37.68425,0.028249999999999886,False,0.14500000000000313,0.173250000000003,1,0.4474754250835563,37.66975,0.013750000000001705,0.014499999999998181,35.398230088495716,0.009535084948734767
MeanVar1,37.82925,37.82925,37.8595,0.030249999999995225,False,0.14850000000000563,0.17875000000000085,1,0.4654863619284547,37.84375,0.014499999999998181,0.015749999999997044,33.05785123967464,0.010485187708744957
MeanVar1,38.008,38.008,38.03575,0.0277499999999975,False,0.1460000000000008,0.1737499999999983,1,0.44194010420693014,38.02175,0.0137499999999946,0.014000000000002899,36.036036036039285,0.009234529394881544
MeanVar1,38.18175,38.18175,38.21225,0.03049999999999642,False,0.14700000000000557,0.177500000000002,1,0.46983784233715553,38.19675,0.015000000000000568,0.01549999999999585,32.78688524590549,0.01070977726114466
MeanVar1,38.35925,38.35925,38.38675,0.027499999999996305,False,0.14800000000000324,0.17549999999999955,1,0.44232388756295676,38.373,0.0137499999999946,0.013750000000001705,36.36363636364125,0.009144891072857408
MeanVar1,38.53475,38.53475,38.56525,0.03049999999999642,False,0.14475000000000193,0.17524999999999835,1,0.48754037081496127,38.55025,0.01549999999999585,0.015000000000000568,32.78688524590549,0.01096154719431314
MeanVar1,38.71,38.71,38.73825,0.028249999999999886,False,0.1494999999999962,0.17774999999999608,1,0.44695799853543733,38.724000000000004,0.014000000000002899,0.014249999999996987,35.398230088495716,0.009452711534904946
MeanVar1,38.88775,38.88775,38.91675,0.029000000000003467,False,0.14475000000000193,0.1737500000000054,1,0.46199741547925716,38.902,0.014250000000004093,0.014749999999999375,34.48275862068553,0.010028700754766914
MeanVar1,39.0615,39.0615,39.091,0.02949999999999875,False,0.1494999999999962,0.17899999999999494,1,0.45966571247455984,39.07575,0.014249999999996987,0.015250000000001762,33.8983050847472,0.010098203862330386
MeanVar1,39.2405,39.2405,39.2685,0.028000000000005798,False,0.14524999999999721,0.173250000000003,1,0.4487178972257712,39.25425,0.013750000000001705,0.014250000000004093,35.71428571427832,0.009486855307497717
MeanVar1,39.41375,39.41375,39.4445,0.030749999999997613,False,0.14775000000000205,0.17849999999999966,1,0.47825499229826096,39.42875,0.015000000000000568,0.015749999999997044,32.52032520325456,0.010906466479563113
MeanVar1,39.59225,39.59225,39.62,0.0277499999999975,False,0.14724999999999966,0.17499999999999716,1,0.45624958922587777,39.60625,0.014000000000002899,0.0137499999999946,36.036036036039285,0.009503268316930802
MeanVar1,39.76725,39.76725,39.7975,0.03025000000000233,False,0.1460000000000008,0.17625000000000313,1,0.47069848959970856,39.783,0.01575000000000415,0.014499999999998181,33.057851239666874,0.01062120782512279
MeanVar1,39.9435,39.9435,39.97125,0.0277499999999975,False,0.1492500000000021,0.1769999999999996,1,0.44608915483480754,39.95725,0.013750000000001705,0.013999999999995794,36.036036036039285,0.009325315609571148
MeanVar1,40.1205,40.1205,40.15,0.02949999999999875,False,0.14475000000000193,0.17425000000000068,1,0.4663360410925247,40.135,0.014499999999998181,0.015000000000000568,33.8983050847472,0.010249111320383685
MeanVar1,40.29475,40.29475,40.324,0.029249999999997556,False,0.1495000000000033,0.17875000000000085,1,0.4573051696385119,40.309,0.014249999999996987,0.015000000000000568,34.188034188037044,0.009951776926287209
MeanVar1,40.4735,40.4735,40.50225,0.02874999999999517,False,0.14500000000000313,0.1737499999999983,1,0.46733364366478936,40.487500000000004,0.014000000000002899,0.01474999999999227,34.78260869565802,0.010017030463960006
MeanVar1,40.64725,40.64725,40.67825,0.030999999999998806,False,0.14775000000000205,0.17875000000000085,1,0.4874624820792891,40.66225,0.015000000000000568,0.015999999999998238,32.258064516130275,0.011166060473653336
MeanVar1,40.826,40.826,40.85325,0.027250000000002217,False,0.14775000000000205,0.17500000000000426,1,0.43958625967116277,40.83975,0.013750000000001705,0.013500000000000512,36.697247706419034,0.00908459012587062
MeanVar1,41.001000000000005,41.001000000000005,41.0315,0.03049999999999642,False,0.1454999999999984,0.17599999999999483,1,0.4738346929827354,41.01675,0.015749999999997044,0.014749999999999375,32.78688524590549,0.01071210887685072
MeanVar1,41.177,41.177,41.20525,0.028249999999999886,False,0.1495000000000033,0.17775000000000318,1,0.4494426230846944,41.191,0.014000000000002899,0.014249999999996987,35.398230088495716,0.00948575624566543
MeanVar1,41.35475,41.35475,41.38399999999999,0.02924999999999045,False,0.14475000000000904,0.1739999999999995,1,0.46335307597870745,41.36925,0.014499999999998181,0.01474999999999227,34.18803418804535,0.010119785897468954
MeanVar1,41.52875,41.52875,41.5585,0.029749999999999943,False,0.1494999999999962,0.17924999999999613,1,0.46831377413400044,41.543,0.014249999999996987,0.015500000000002956,33.613445378151326,0.01030248347949751
MeanVar1,41.708,41.708,41.73625,0.028249999999999886,False,0.1457499999999996,0.1739999999999995,1,0.4669567199555226,41.722,0.014000000000002899,0.014249999999996987,35.398230088495716,0.009875026648448425
MeanVar1,41.882,41.882,41.9125,0.030500000000003524,False,0.14750000000000085,0.17800000000000438,1,0.4699465189296921,41.897,0.015000000000000568,0.015500000000002956,32.78688524589785,0.010701906510399348
MeanVar1,42.06,42.06,42.0875,0.027499999999996305,False,0.14825000000000443,0.17575000000000074,1,0.44454187278987845,42.073750000000004,0.013750000000001705,0.0137499999999946,36.36363636364125,0.009202637220028854
MeanVar1,42.23575,42.23575,42.266000000000005,0.03025000000000233,False,0.14524999999999721,0.17549999999999955,1,0.4742285892950499,42.25125,0.01549999999999585,0.01475000000000648,33.057851239666874,0.010616442543501569
MeanVar1,42.41125,42.41125,42.43975,0.028499999999993975,False,0.15025000000000688,0.17875000000000085,1,0.4509383397294896,42.42525,0.013999999999995794,0.014499999999998181,35.087719298253035,0.009630740040159257
MeanVar1,42.59,42.59,42.619,0.028999999999996362,False,0.14450000000000074,0.1734999999999971,1,0.46645468297375736,42.604,0.013999999999995794,0.015000000000000568,34.48275862069398,0.010093775640618434
MeanVar1,42.7635,42.7635,42.794,0.03049999999999642,False,0.14874999999999972,0.17924999999999613,1,0.46875935233482335,42.778,0.014499999999998181,0.015999999999998238,32.78688524590549,0.010591701674118593
MeanVar1,42.94275,42.94275,42.9705,0.027750000000004604,False,0.14699999999999847,0.17475000000000307,1,0.44265649717631445,42.95675,0.014000000000002899,0.013750000000001705,36.036036036030055,0.00923762811734244
MeanVar1,43.1175,43.1175,43.148,0.030500000000003524,False,0.14624999999999488,0.1767499999999984,1,0.4743907803708195,43.1335,0.015999999999998238,0.014500000000005286,32.78688524589785,0.01076070969395368
MeanVar1,43.29425,43.29425,43.32225,0.027999999999998693,False,0.1497500000000045,0.17775000000000318,1,0.45245379128925733,43.30825,0.014000000000002899,0.013999999999995794,35.714285714287385,0.009499644857690333
MeanVar1,43.472,43.472,43.50125,0.029249999999997556,False,0.14525000000000432,0.17450000000000188,1,0.4633805710176783,43.4865,0.014499999999998181,0.014749999999999375,34.188034188037044,0.01010731466884467
MeanVar1,43.6465,43.6465,43.6765,0.02999999999999403,False,0.1492500000000021,0.17924999999999613,1,0.4747774227706364,43.66075,0.014249999999996987,0.015749999999997044,33.333333333339965,0.010551072314638981
MeanVar1,43.82575,43.82575,43.8535,0.0277499999999975,False,0.14650000000000318,0.17425000000000068,1,0.44964908530912295,43.8395,0.013750000000001705,0.013999999999995794,36.036036036039285,0.009420190588293596
MeanVar1,44.0,44.0,44.0305,0.030500000000003524,False,0.14699999999999847,0.177500000000002,1,0.47413055398196896,44.01525,0.015250000000001762,0.015250000000001762,32.78688524589785,0.010799608462962743
MeanVar1,44.1775,44.1775,44.20525,0.0277499999999975,False,0.1492500000000021,0.1769999999999996,1,0.4493648198791772,44.1915,0.013999999999995794,0.013750000000001705,36.036036036039285,0.009349847336293772
MeanVar1,44.3545,44.3545,44.38425,0.029749999999999943,False,0.14499999999999602,0.17474999999999596,1,0.46773177923722425,44.3695,0.015000000000000568,0.014749999999999375,33.613445378151326,0.010323564241044152
MeanVar1,44.52925,44.52925,44.55825,0.029000000000003467,False,0.15024999999999977,0.17925000000000324,1,0.45709679725216157,44.54325,0.014000000000002899,0.015000000000000568,34.48275862068553,0.009893601912993986
MeanVar1,44.7085,44.7085,44.73675,0.028249999999999886,False,0.1457499999999996,0.1739999999999995,1,0.4593506456696809,44.722500000000004,0.014000000000002899,0.014249999999996987,35.398230088495716,0.009758169439870212
MeanVar1,44.8825,44.8825,44.91325,0.030749999999997613,False,0.14750000000000085,0.17824999999999847,1,0.4746657346074424,44.8975,0.015000000000000568,0.015749999999997044,32.52032520325456,0.010850163730122082
MeanVar1,45.06075,45.06075,45.08825,0.02750000000000341,False,0.149249999999995,0.1767499999999984,1,0.4455795614525082,45.0745,0.013750000000001705,0.013750000000001705,36.363636363631855,0.009230305761388459
MeanVar1,45.2375,45.2375,45.26725,0.029749999999999943,False,0.14525000000000432,0.17500000000000426,1,0.47166627085700885,45.2525,0.015000000000000568,0.014749999999999375,33.613445378151326,0.01044565863380809
MeanVar1,45.4125,45.4125,45.44175,0.029249999999997556,False,0.15024999999999977,0.17949999999999733,1,0.45818194508783233,45.42675,0.014249999999996987,0.015000000000000568,34.188034188037044,0.009974325965817715
MeanVar1,45.592,45.592,45.62025,0.028249999999999886,False,0.1460000000000008,0.17425000000000068,1,0.4496739077079164,45.60575,0.013750000000001705,0.014499999999998181,35.398230088495716,0.00953489142886059
MeanVar1,45.76625,45.76625,45.797,0.030749999999997613,False,0.14724999999999966,0.17799999999999727,1,0.4861960074364542,45.7815,0.015250000000001762,0.01549999999999585,32.52032520325456,0.011098657274802911
MeanVar1,45.94425,45.94425,45.97175,0.02750000000000341,False,0.1492500000000021,0.1767500000000055,1,0.44751441264196357,45.95825,0.014000000000002899,0.013500000000000512,36.363636363631855,0.009272062400387242
MeanVar1,46.121,46.121,46.151,0.030000000000001137,False,0.14524999999999721,0.17524999999999835,1,0.4705208652084242,46.136250000000004,0.015250000000001762,0.014749999999999375,33.33333333333207,0.010450818566649357
MeanVar1,46.29625,46.29625,46.32575,0.02949999999999875,False,0.14999999999999858,0.17949999999999733,1,0.46098326947716306,46.3105,0.014249999999996987,0.015250000000001762,33.8983050847472,0.010087912928801686
MeanVar1,46.47575,46.47575,46.50375,0.027999999999998693,False,0.146250000000002,0.17425000000000068,1,0.4489503389925683,46.4895,0.013750000000001705,0.014249999999996987,35.714285714287385,0.009484622826152464
MeanVar1,46.65,46.65,46.68025,0.03025000000000233,False,0.14775000000000205,0.17800000000000438,1,0.46805696456168283,46.66475,0.014749999999999375,0.015500000000002956,33.057851239666874,0.010621319234958264
MeanVar1,46.828,46.828,46.856,0.027999999999998693,False,0.149249999999995,0.1772499999999937,1,0.46360498414902485,46.842,0.013999999999995794,0.014000000000002899,35.714285714287385,0.009685328305823498
MeanVar1,47.00525,47.00525,47.035,0.029749999999999943,False,0.14525000000000432,0.17500000000000426,1,0.4686383056451484,47.02,0.01475000000000648,0.014999999999993463,33.613445378151326,0.010337282195622296
MeanVar1,47.18025,47.18025,47.21,0.029749999999999943,False,0.14999999999999858,0.17974999999999852,1,0.4628138219207282,47.1945,0.014249999999996987,0.015500000000002956,33.613445378151326,0.01019487849633789
MeanVar1,47.36,47.36,47.38775,0.0277499999999975,False,0.14675000000000438,0.17450000000000188,1,0.44693046063436204,47.37375,0.013750000000001705,0.013999999999995794,36.036036036039285,0.009352531541382483
MeanVar1,47.5345,47.5345,47.565,0.03049999999999642,False,0.14699999999999847,0.17749999999999488,1,0.47277599775289875,47.550000000000004,0.015500000000002956,0.014999999999993463,32.78688524590549,0.010766258581266279
MeanVar1,47.711999999999996,47.711999999999996,47.74025,0.028250000000006992,False,0.14974999999999739,0.17800000000000438,1,0.4650380873604312,47.726,0.014000000000002899,0.014250000000004093,35.39823008848681,0.009769226373747844
MeanVar1,47.89,47.89,47.91925,0.029249999999997556,False,0.1454999999999984,0.17474999999999596,1,0.46830929603835886,47.9045,0.014499999999998181,0.014749999999999375,34.188034188037044,0.010209623462568148
MeanVar1,48.06475,48.06475,48.09475,0.030000000000001137,False,0.1495000000000033,0.17950000000000443,1,0.46507224544864273,48.079,0.014250000000004093,0.015749999999997044,33.33333333333207,0.010374195484358346
MeanVar1,48.24425,48.24425,48.27175,0.027499999999996305,False,0.14800000000000324,0.17549999999999955,1,0.4440568253632864,48.258,0.013750000000001705,0.0137499999999946,36.36363636364125,0.00922493432365911
MeanVar1,48.41975,48.41975,48.45025,0.03049999999999642,False,0.1460000000000008,0.17649999999999721,1,0.4756400711045434,48.43525,0.015500000000002956,0.014999999999993463,32.78688524590549,0.010756362471408681
MeanVar1,48.59625,48.59625,48.62475,0.02850000000000108,False,0.15075000000000216,0.17925000000000324,1,0.45463029993437654,48.61025,0.014000000000002899,0.014499999999998181,35.08771929824429,0.009680808706591791
MeanVar1,48.7755,48.7755,48.803999999999995,0.028499999999993975,False,0.1460000000000079,0.17450000000000188,1,0.46337954390163716,48.78925,0.013750000000001705,0.01474999999999227,35.087719298253035,0.009917053455950573
MeanVar1,48.95,48.95,48.981,0.030999999999998806,False,0.14750000000000085,0.17849999999999966,1,0.49348585055277144,48.96525,0.015249999999994657,0.01575000000000415,32.258064516130275,0.011321778330040907
MeanVar1,49.1285,49.1285,49.156000000000006,0.02750000000000341,False,0.14974999999999739,0.1772500000000008,1,0.44464646969751387,49.142250000000004,0.013750000000001705,0.013750000000001705,36.363636363631855,0.009188291851058154
MeanVar1,49.30575,49.30575,49.3355,0.029749999999999943,False,0.14524999999999721,0.17499999999999716,1,0.4700833970135468,49.320750000000004,0.015000000000000568,0.014749999999999375,33.613445378151326,0.010366980341802017
MeanVar1,49.48075,49.48075,49.5105,0.029749999999999943,False,0.15024999999999977,0.17999999999999972,1,0.46129482361906415,49.495000000000005,0.014250000000004093,0.01549999999999585,33.613445378151326,0.010175026117733852
MeanVar1,49.66075,49.66075,49.6885,0.0277499999999975,False,0.14700000000000557,0.17475000000000307,1,0.44609648320170114,49.6745,0.013750000000001705,0.013999999999995794,36.036036036039285,0.009345250943436568
MeanVar1,49.8355,49.8355,49.86625,0.030749999999997613,False,0.14675000000000438,0.177500000000002,1,0.48646210387018196,49.85125,0.015749999999997044,0.015000000000000568,32.52032520325456,0.01110376685000022
MeanVar1,50.013000000000005,50.013000000000005,50.042,0.028999999999996362,False,0.15050000000000097,0.17949999999999733,1,0.47169577696408993,50.02725,0.014249999999996987,0.014749999999999375,34.48275862069398,0.010137040874080674
MeanVar1,50.1925,50.1925,50.22075,0.028249999999999886,False,0.14649999999999608,0.17474999999999596,1,0.44982373905247874,50.206,0.013500000000000512,0.014749999999999375,35.398230088495716,0.009580783056302288
MeanVar1,50.36725,50.36725,50.39775,0.030500000000003524,False,0.14799999999999613,0.17849999999999966,1,0.47340069647314953,50.382,0.014749999999999375,0.01575000000000415,32.78688524589785,0.01077688613954559
MeanVar1,50.54575,50.54575,50.57325,0.02750000000000341,False,0.15050000000000097,0.17800000000000438,1,0.4462659999807841,50.5595,0.013750000000001705,0.013750000000001705,36.363636363631855,0.009241635909223554
MeanVar1,50.72375,50.72375,50.753,0.029249999999997556,False,0.1454999999999984,0.17474999999999596,1,0.4663347027745365,50.73825,0.014499999999998181,0.014749999999999375,34.188034188037044,0.010194930373059411
MeanVar1,50.8985,50.8985,50.9285,0.030000000000001137,False,0.14974999999999739,0.17974999999999852,1,0.4627580256676743,50.91275,0.014250000000004093,0.015749999999997044,33.33333333333207,0.010303582508630574
MeanVar1,51.07825,51.07825,51.10625,0.028000000000005798,False,0.14799999999999613,0.17600000000000193,1,0.46374717992496794,51.0925,0.014250000000004093,0.013750000000001705,35.71428571427832,0.009720300183213548
MeanVar1,51.25425,51.25425,51.2845,0.03025000000000233,False,0.146250000000002,0.17650000000000432,1,0.47372928944097703,51.26975,0.015500000000002956,0.014749999999999375,33.057851239666874,0.010648036221147596
MeanVar1,51.43075,51.43075,51.45975,0.028999999999996362,False,0.15075000000000216,0.17974999999999852,1,0.4553269790890744,51.44475,0.013999999999995794,0.015000000000000568,34.48275862069398,0.009847717922213067
MeanVar1,51.6105,51.6105,51.6385,0.027999999999998693,False,0.14699999999999847,0.17499999999999716,1,0.45089240796069296,51.62425,0.013750000000001705,0.014249999999996987,35.714285714287385,0.009522706976895593
MeanVar1,51.7855,51.7855,51.81625,0.030749999999997613,False,0.14700000000000557,0.17775000000000318,1,0.4759875154793499,51.801,0.015500000000002956,0.015249999999994657,32.52032520325456,0.010875612274015158
MeanVar1,51.96325,51.96325,51.9915,0.028249999999999886,False,0.15124999999999744,0.17949999999999733,1,0.46630532188429796,51.97725,0.013999999999995794,0.014250000000004093,35.398230088495716,0.009783457431748396
MeanVar1,52.14275,52.14275,52.1715,0.028750000000002274,False,0.1460000000000008,0.17475000000000307,1,0.46778713032837305,52.15675,0.014000000000002899,0.014749999999999375,34.78260869564942,0.010052107747351074
MeanVar1,52.3175,52.3175,52.348,0.03049999999999642,False,0.14800000000000324,0.17849999999999966,1,0.4691411903878996,52.332,0.014499999999998181,0.015999999999998238,32.78688524590549,0.010670118995312294
MeanVar1,52.496,52.496,52.52375,0.0277499999999975,False,0.15024999999999977,0.17799999999999727,1,0.4446549252826751,52.51,0.013999999999995794,0.013750000000001705,36.036036036039285,0.009259960765785773
MeanVar1,52.674,52.674,52.7035,0.02949999999999875,False,0.1457499999999996,0.17524999999999835,1,0.4659358085479045,52.68875,0.014749999999999375,0.014749999999999375,33.8983050847472,0.010239721399735998
MeanVar1,52.84925,52.84925,52.87925,0.030000000000001137,False,0.1495000000000033,0.17950000000000443,1,0.46469731352975985,52.8635,0.014250000000004093,0.015749999999997044,33.33333333333207,0.010374473826403382
MeanVar1,53.02875,53.02875,53.05675,0.027999999999998693,False,0.14874999999999972,0.1767499999999984,1,0.4631222300293528,53.04275,0.013999999999995794,0.014000000000002899,35.714285714287385,0.009720931651621354
MeanVar1,53.2055,53.2055,53.236000000000004,0.030500000000003524,False,0.1454999999999984,0.17600000000000193,1,0.4904167999222853,53.221000000000004,0.015500000000002956,0.015000000000000568,32.78688524589785,0.011014030078420967
MeanVar1,53.3815,53.3815,53.411,0.02949999999999875,False,0.15075000000000216,0.1802500000000009,1,0.45686440956628344,53.39575,0.014249999999996987,0.015250000000001762,33.8983050847472,0.010007117439783575
MeanVar1,53.56175,53.56175,53.5895,0.0277499999999975,False,0.14775000000000205,0.17549999999999955,1,0.4446536791535862,53.5755,0.0137499999999946,0.014000000000002899,36.036036036039285,0.009299754505728838
MeanVar1,53.73725,53.73725,53.76775,0.03049999999999642,False,0.14624999999999488,0.1767499999999913,1,0.4748230305991069,53.753,0.015749999999997044,0.014749999999999375,32.78688524590549,0.01076664843274162
MeanVar1,53.913999999999994,53.913999999999994,53.9425,0.028500000000008185,False,0.15099999999999625,0.17950000000000443,1,0.45191852825901124,53.928000000000004,0.014000000000010004,0.014499999999998181,35.087719298235534,0.009604602686122734
MeanVar1,54.0935,54.0935,54.122,0.02850000000000108,False,0.14699999999999847,0.17549999999999955,1,0.4611324732166984,54.1075,0.014000000000002899,0.014499999999998181,35.08771929824429,0.009819975633364461
MeanVar1,54.269,54.269,54.29975,0.030750000000004718,False,0.14699999999999847,0.17775000000000318,1,0.4904929939486675,54.28425,0.015250000000001762,0.015500000000002956,32.52032520324704,0.011224574198765807
MeanVar1,54.44675,54.44675,54.47475,0.027999999999998693,False,0.15149999999999864,0.17949999999999733,1,0.4466861198912721,54.460750000000004,0.014000000000002899,0.013999999999995794,35.714285714287385,0.00937725425907404
MeanVar1,54.62625,54.62625,54.65475,0.02850000000000108,False,0.146250000000002,0.17475000000000307,1,0.45617418993802683,54.64,0.013750000000001705,0.014749999999999375,35.08771929824429,0.009780896463056268
MeanVar1,54.801,54.801,54.8315,0.03049999999999642,False,0.14849999999999852,0.17899999999999494,1,0.4701839910817879,54.81575,0.014749999999999375,0.015749999999997044,32.78688524590549,0.010675705176774438
MeanVar1,54.98,54.98,55.0075,0.02750000000000341,False,0.14999999999999858,0.177500000000002,1,0.4468729081036136,54.99375,0.013750000000001705,0.013750000000001705,36.363636363631855,0.009255520932275189
MeanVar1,55.1575,55.1575,55.18725,0.029749999999999943,False,0.1460000000000008,0.17575000000000074,1,0.47808778895784,55.17225,0.014749999999999375,0.015000000000000568,33.613445378151326,0.01058485160998174
MeanVar1,55.33325,55.33325,55.36375,0.030500000000003524,False,0.1492500000000021,0.17975000000000563,1,0.47995707287618306,55.34775,0.014499999999998181,0.016000000000005343,32.78688524589785,0.010828893128144407
MeanVar1,55.513000000000005,55.513000000000005,55.5405,0.027499999999996305,False,0.1490000000000009,0.17649999999999721,1,0.44045564079631416,55.52675,0.0137499999999946,0.013750000000001705,36.36363636364125,0.009144436838072352
MeanVar1,55.6895,55.6895,55.7195,0.02999999999999403,False,0.146250000000002,0.17624999999999602,1,0.4690231920134162,55.704750000000004,0.015250000000001762,0.01474999999999227,33.333333333339965,0.010455408446147956
MeanVar1,55.86575,55.86575,55.89525,0.02949999999999875,False,0.15050000000000097,0.17999999999999972,1,0.4585255791507038,55.87975,0.014000000000002899,0.01549999999999585,33.8983050847472,0.010062152141052579
MeanVar1,56.04575,56.04575,56.0735,0.027750000000004604,False,0.14774999999999494,0.17549999999999955,1,0.444070400183238,56.0595,0.013750000000001705,0.014000000000002899,36.036036036030055,0.009289553705493253
MeanVar1,56.22125,56.22125,56.251999999999995,0.030749999999997613,False,0.1460000000000079,0.1767500000000055,1,0.4931415584161628,56.23725,0.016000000000005343,0.01474999999999227,32.52032520325456,0.011152030685651503
MeanVar1,56.398,56.398,56.427,0.028999999999996362,False,0.15100000000000335,0.17999999999999972,1,0.46076600001154183,56.41225,0.014249999999996987,0.014749999999999375,34.48275862069398,0.009919350784831327
MeanVar1,56.578,56.578,56.60625,0.028249999999999886,False,0.14699999999999847,0.17524999999999835,1,0.44800447200471627,56.591750000000005,0.013750000000001705,0.014499999999998181,35.398230088495716,0.009518242916383346
MeanVar1,56.75325,56.75325,56.78375,0.03049999999999642,False,0.14725000000000676,0.17775000000000318,1,0.4719348047257898,56.7685,0.015250000000001762,0.015249999999994657,32.78688524590549,0.010751880207904173
MeanVar1,56.931000000000004,56.931000000000004,56.958999999999996,0.027999999999991587,False,0.15125000000000455,0.17924999999999613,1,0.44988104712684807,56.945,0.013999999999995794,0.013999999999995794,35.714285714296444,0.009448608918846796
MeanVar1,57.11025,57.11025,57.13875,0.02850000000000108,False,0.14674999999999727,0.17524999999999835,1,0.45012838712817066,57.12425,0.014000000000002899,0.014499999999998181,35.08771929824429,0.009664280645390017
MeanVar1,57.2855,57.2855,57.3165,0.030999999999998806,False,0.14750000000000085,0.17849999999999966,1,0.48749832422543954,57.30075,0.015250000000001762,0.015749999999997044,32.258064516130275,0.01118932357428148
MeanVar1,57.464,57.464,57.49175,0.027750000000004604,False,0.15099999999999625,0.17875000000000085,1,0.4450532220277511,57.478,0.014000000000002899,0.013750000000001705,36.036036036030055,0.009252431727054016
MeanVar1,57.64275,57.64275,57.67175,0.029000000000003467,False,0.146250000000002,0.17525000000000546,1,0.45983946650499213,57.657000000000004,0.014250000000004093,0.014749999999999375,34.48275862068553,0.009973189947471404
MeanVar1,57.818000000000005,57.818000000000005,57.84825,0.030249999999995225,False,0.1490000000000009,0.17924999999999613,1,0.4669693643908515,57.8325,0.014499999999998181,0.015749999999997044,33.05785123967464,0.010544655812259626
MeanVar1,57.99725,57.99725,58.02475,0.027499999999996305,False,0.15024999999999977,0.17774999999999608,1,0.4456450489132134,58.011250000000004,0.014000000000002899,0.013499999999993406,36.36363636364125,0.009224736271990337
MeanVar1,58.175,58.175,58.20475,0.029749999999999943,False,0.1460000000000008,0.17575000000000074,1,0.47451484790875764,58.189750000000004,0.01475000000000648,0.014999999999993463,33.613445378151326,0.010485614277000949
MeanVar1,58.35075,58.35075,58.3815,0.030750000000004718,False,0.1490000000000009,0.17975000000000563,1,0.4817181181666241,58.365500000000004,0.01475000000000648,0.015999999999998238,32.52032520324704,0.010939952483935792
MeanVar1,58.5305,58.5305,58.55775,0.02724999999999511,False,0.14999999999999858,0.1772499999999937,1,0.44123204484150635,58.54425,0.0137499999999946,0.013500000000000512,36.6972477064286,0.00910061442230777
MeanVar1,58.70775,58.70775,58.7375,0.029749999999999943,False,0.146250000000002,0.17600000000000193,1,0.46632498051453586,58.72275,0.015000000000000568,0.014749999999999375,33.613445378151326,0.010317668489397518
MeanVar1,58.88375,58.88375,58.91375,0.030000000000001137,False,0.14999999999999858,0.17999999999999972,1,0.4623561318312604,58.898,0.014250000000004093,0.015749999999997044,33.33333333333207,0.010293783329189395
MeanVar1,59.06375,59.06375,59.09125,0.02750000000000341,False,0.1494999999999962,0.1769999999999996,1,0.44301353434803314,59.07775,0.014000000000002899,0.013500000000000512,36.363636363631855,0.009203696447397805
MeanVar1,59.24075,59.24075,59.27075,0.030000000000001137,False,0.1460000000000008,0.17600000000000193,1,0.474016374467796,59.256,0.015250000000001762,0.014749999999999375,33.33333333333207,0.01058547093687581
MeanVar1,59.41675,59.41675,59.446999999999996,0.030249999999995225,False,0.15000000000000568,0.1802500000000009,1,0.47936738371990245,59.43125,0.014499999999998181,0.015749999999997044,33.05785123967464,0.010714098848006191
MeanVar1,59.597,59.597,59.6245,0.027499999999996305,False,0.1494999999999962,0.1769999999999925,1,0.440048130395487,59.61075,0.013750000000001705,0.0137499999999946,36.36363636364125,0.009140452975721778
MeanVar1,59.773999999999994,59.773999999999994,59.80375,0.02975000000000705,False,0.1460000000000008,0.17575000000000784,1,0.47294988109962316,59.78875,0.01475000000000648,0.015000000000000568,33.6134453781433,0.010401531072130432
MeanVar1,59.94975,59.94975,59.9795,0.029749999999999943,False,0.15050000000000097,0.1802500000000009,1,0.46332856674390266,59.96425,0.014499999999998181,0.015250000000001762,33.613445378151326,0.010219210656862869
MeanVar1,60.13,60.13,60.158,0.027999999999998693,False,0.14824999999999733,0.17624999999999602,1,0.4652277182573368,60.14425,0.014249999999996987,0.013750000000001705,35.714285714287385,0.009749910151353281
MeanVar1,60.30625,60.30625,60.3365,0.03025000000000233,False,0.14650000000000318,0.1767500000000055,1,0.4712963105948799,60.32175,0.015500000000002956,0.014749999999999375,33.057851239666874,0.010599546037383388
MeanVar1,60.483000000000004,60.483000000000004,60.51225,0.029249999999997556,False,0.15099999999999625,0.1802499999999938,1,0.4599875626657378,60.49725,0.014249999999996987,0.015000000000000568,34.188034188037044,0.010020501099944268
MeanVar1,60.66325,60.66325,60.691,0.027750000000004604,False,0.14824999999999733,0.17600000000000193,1,0.45262478235459164,60.677,0.013750000000001705,0.014000000000002899,36.036036036030055,0.009480236729369004
MeanVar1,60.83925,60.83925,60.87,0.030749999999997613,False,0.1457499999999996,0.17649999999999721,1,0.49369852632998446,60.855000000000004,0.01575000000000415,0.014999999999993463,32.52032520325456,0.01119618948701297
MeanVar1,61.01575,61.01575,61.04475,0.029000000000003467,False,0.15125000000000455,0.18025000000000801,1,0.45323780446800727,61.03,0.014250000000004093,0.014749999999999375,34.48275862068553,0.00978295915961401
MeanVar1,61.196000000000005,61.196000000000005,61.224,0.027999999999991587,False,0.14700000000000557,0.17499999999999716,1,0.44702014756483766,61.20975,0.0137499999999946,0.014249999999996987,35.714285714296444,0.009431016214514028
MeanVar1,61.371,61.371,61.4015,0.03049999999999642,False,0.14699999999999847,0.17749999999999488,1,0.47281933983126534,61.38675,0.015749999999997044,0.014749999999999375,32.78688524590549,0.0107603025533459
MeanVar1,61.5485,61.5485,61.5775,0.029000000000003467,False,0.15075000000000216,0.17975000000000563,1,0.4632116441651112,61.563,0.014500000000005286,0.014499999999998181,34.48275862068553,0.009963839393106962
MeanVar1,61.72825,61.72825,61.75675,0.028499999999993975,False,0.14650000000000318,0.17499999999999716,1,0.45806105401564257,61.742000000000004,0.013750000000001705,0.01474999999999227,35.087719298253035,0.009813158700487573
MeanVar1,61.90325,61.90325,61.93375,0.030500000000003524,False,0.14799999999999613,0.17849999999999966,1,0.46964276439839414,61.918,0.014749999999999375,0.01575000000000415,32.78688524589785,0.01069892937957824
MeanVar1,62.08175,62.08175,62.10925,0.02750000000000341,False,0.15074999999999505,0.17824999999999847,1,0.44884186829386996,62.0955,0.013750000000001705,0.013750000000001705,36.363636363631855,0.009285023402759364
MeanVar1,62.26,62.26,62.28925,0.02925000000000466,False,0.1457499999999996,0.17500000000000426,1,0.4628444101971717,62.27425,0.014250000000004093,0.015000000000000568,34.18803418802874,0.010090274900434768
MeanVar1,62.435,62.435,62.4655,0.03049999999999642,False,0.14874999999999972,0.17924999999999613,1,0.47202066136127974,62.44925,0.014249999999996987,0.01624999999999943,32.78688524590549,0.010676896904679234
MeanVar1,62.61425,62.61425,62.641999999999996,0.0277499999999975,False,0.14900000000000801,0.1767500000000055,1,0.45275195569300575,62.62825,0.014000000000002899,0.0137499999999946,36.036036036039285,0.009428501311290817
MeanVar1,62.791000000000004,62.791000000000004,62.821000000000005,0.030000000000001137,False,0.1457499999999925,0.17574999999999363,1,0.4697933043283957,62.80625,0.015249999999994657,0.01475000000000648,33.33333333333207,0.010465582354238157
MeanVar1,62.96675,62.96675,62.99625,0.029500000000005855,False,0.15074999999999505,0.1802500000000009,1,0.459046901914582,62.981,0.014250000000004093,0.015250000000001762,33.898305084739036,0.010061406971814426
MeanVar1,63.147,63.147,63.17475,0.027750000000004604,False,0.14724999999999255,0.17499999999999716,1,0.44405453266141676,63.16075,0.013750000000001705,0.014000000000002899,36.036036036030055,0.009307449481574064
MeanVar1,63.321999999999996,63.321999999999996,63.3525,0.030500000000003524,False,0.14675000000000438,0.1772500000000079,1,0.47256329907052713,63.3375,0.015500000000002956,0.015000000000000568,32.78688524589785,0.010735897935613355
MeanVar1,63.49925,63.49925,63.5275,0.028249999999999886,False,0.15074999999999505,0.17899999999999494,1,0.45739727359804694,63.51325,0.013999999999995794,0.014250000000004093,35.398230088495716,0.009653842038375762
MeanVar1,63.67825,63.67825,63.707,0.028750000000002274,False,0.1457499999999996,0.17450000000000188,1,0.45987026765389427,63.69225,0.014000000000002899,0.014749999999999375,34.78260869564942,0.00989432694311754
MeanVar1,63.85275,63.85275,63.88325,0.03049999999999642,False,0.14850000000000563,0.17900000000000205,1,0.4681632870534667,63.8675,0.014749999999999375,0.015749999999997044,32.78688524590549,0.010643969431672179
MeanVar1,64.03175,64.03175,64.05925,0.02750000000000341,False,0.14999999999999147,0.17749999999999488,1,0.4460703107629265,64.0455,0.013750000000001705,0.013750000000001705,36.363636363631855,0.009233455981685455
MeanVar1,64.20925,64.20925,64.23899999999999,0.029749999999992838,False,0.14550000000001262,0.17525000000000546,1,0.46527074359492254,64.224,0.01475000000000648,0.014999999999986358,33.613445378159355,0.010270723000711428
MeanVar1,64.3845,64.3845,64.41425,0.029749999999992838,False,0.15000000000000568,0.17974999999999852,1,0.46157444227977895,64.3985,0.013999999999995794,0.015749999999997044,33.613445378159355,0.01021620335597531
MeanVar1,64.56425,64.56425,64.592,0.0277499999999975,False,0.14799999999999613,0.17574999999999363,1,0.45679222987855866,64.578,0.013750000000001705,0.013999999999995794,36.036036036039285,0.009541771335869078
MeanVar1,64.74,64.74,64.7705,0.030500000000003524,False,0.1460000000000008,0.17650000000000432,1,0.48282133289836016,64.75575,0.015750000000011255,0.01474999999999227,32.78688524589785,0.010902178545382255
MeanVar1,64.9165,64.9165,64.94525,0.028750000000002274,False,0.15125000000000455,0.18000000000000682,1,0.45299329723785453,64.9305,0.013999999999995794,0.01475000000000648,34.78260869564942,0.009744625599927352
MeanVar1,65.0965,65.0965,65.1245,0.027999999999991587,False,0.14700000000000557,0.17499999999999716,1,0.4484349057629222,65.11,0.013499999999993406,0.014499999999998181,35.714285714296444,0.009463115360615471
MeanVar1,65.2715,65.2715,65.30199999999999,0.030499999999989313,False,0.14700000000000557,0.17749999999999488,1,0.4735270894665934,65.28675,0.015249999999994657,0.015249999999994657,32.786885245913126,0.010786313197190048
MeanVar1,65.449,65.449,65.477,0.028000000000005798,False,0.15075000000000216,0.17875000000000796,1,0.4480763685663955,65.46300000000001,0.014000000000010004,0.013999999999995794,35.71428571427832,0.009396213006302164
MeanVar1,65.62775,65.62775,65.6565,0.028749999999988063,False,0.1460000000000008,0.17474999999998886,1,0.45881264751969364,65.642,0.014249999999989882,0.014499999999998181,34.78260869566662,0.009899991861289082
MeanVar1,65.8025,65.8025,65.83325,0.030750000000011823,False,0.14824999999999022,0.17900000000000205,1,0.474915039618702,65.8175,0.015000000000000568,0.015750000000011255,32.52032520323953,0.010844011326089465
MeanVar1,65.9815,65.9815,66.00925,0.0277499999999975,False,0.15024999999999977,0.17799999999999727,1,0.4499420239539256,65.9955,0.014000000000010004,0.013749999999987494,36.036036036039285,0.009359554804217811
MeanVar1,66.1595,66.1595,66.189,0.02949999999999875,False,0.1457500000000067,0.17525000000000546,1,0.4668397430668751,66.174,0.014500000000012392,0.014999999999986358,33.8983050847472,0.01024979549381595
MeanVar1,66.33475,66.33475,66.365,0.030249999999995225,False,0.1495000000000033,0.17974999999999852,1,0.4642611319229447,66.349,0.014250000000004093,0.015999999999991132,33.05785123967464,0.010418308186312925
MeanVar1,66.5145,66.5145,66.54225,0.0277499999999975,False,0.14849999999999852,0.17624999999999602,1,0.4469280473278471,66.52850000000001,0.014000000000010004,0.013749999999987494,36.036036036039285,0.0093253426031992
MeanVar1,66.69075,66.69075,66.72125,0.030500000000003524,False,0.1457500000000067,0.17625000000001023,1,0.47549499423334174,66.70625,0.015500000000002956,0.015000000000000568,32.78688524589785,0.01069947046737728
MeanVar1,66.867,66.867,66.89625,0.02924999999999045,False,0.15100000000001046,0.1802500000000009,1,0.45653693214113905,66.881,0.013999999999995794,0.015249999999994657,34.18803418804535,0.009939147580716765
MeanVar1,67.04725,67.04725,67.07525,0.027999999999991587,False,0.14724999999999966,0.17524999999999125,1,0.45840412600183333,67.061,0.013750000000001705,0.014249999999989882,35.714285714296444,0.009629122031642953
MeanVar1,67.2225,67.2225,67.25325,0.030749999999997613,False,0.14650000000000318,0.1772500000000008,1,0.47868936669163437,67.2385,0.016000000000005343,0.01474999999999227,32.52032520325456,0.01090541548565557
MeanVar1,67.39975,67.39975,67.42875,0.028999999999996362,False,0.15125000000000455,0.1802500000000009,1,0.45671153458288893,67.414,0.014250000000004093,0.01474999999999227,34.48275862069398,0.009862657321722904
MeanVar1,67.58,67.58,67.608,0.028000000000005798,False,0.14724999999999966,0.17525000000000546,1,0.45021192154100037,67.59375,0.013750000000001705,0.014250000000004093,35.71428571427832,0.009492534613068792
MeanVar1,67.75525,67.75525,67.786,0.030749999999997613,False,0.14700000000000557,0.17775000000000318,1,0.4773227568555789,67.771,0.015749999999997044,0.015000000000000568,32.52032520325456,0.010902189773585098
MeanVar1,67.933,67.933,67.9615,0.028499999999993975,False,0.15174999999999272,0.1802499999999867,1,0.4538154116427334,67.947,0.013999999999995794,0.014499999999998181,35.087719298253035,0.009680318192631512
MeanVar1,68.11325,68.11325,68.1415,0.028249999999999886,False,0.14675000000001148,0.17500000000001137,1,0.4647940651697636,68.127,0.013750000000001705,0.014499999999998181,35.398230088495716,0.009842938634796503
MeanVar1,68.28825,68.28825,68.319,0.030749999999997613,False,0.14700000000000557,0.17775000000000318,1,0.4795698900947576,68.30375000000001,0.015500000000002956,0.015249999999994657,32.52032520325456,0.01094418618725157
MeanVar1,68.46600000000001,68.46600000000001,68.49475,0.028749999999988063,False,0.15149999999999864,0.1802499999999867,1,0.4566853617968604,68.48025,0.014249999999989882,0.014499999999998181,34.78260869566662,0.00975904218725859
MeanVar1,68.64625,68.64625,68.6745,0.028249999999999886,False,0.14675000000001148,0.17500000000001137,1,0.45228243795998013,68.66,0.013750000000001705,0.014499999999998181,35.398230088495716,0.00960404270212118
MeanVar1,68.82125,68.82125,68.852,0.030749999999997613,False,0.14749999999999375,0.17824999999999136,1,0.47701848392738316,68.83675,0.015499999999988745,0.015250000000008868,32.52032520325456,0.010917953084563368
MeanVar1,68.9995,68.9995,69.02775,0.028249999999999886,False,0.15149999999999864,0.17974999999999852,1,0.4563001914714784,69.01350000000001,0.014000000000010004,0.014249999999989882,35.398230088495716,0.009651174888644865
MeanVar1,69.17925,69.17925,69.20775,0.028500000000008185,False,0.14699999999999136,0.17549999999999955,1,0.4622558742730775,69.19325,0.014000000000010004,0.014499999999998181,35.087719298235534,0.009861098529421642
MeanVar1,69.35475,69.35475,69.3855,0.030749999999997613,False,0.14724999999999966,0.17799999999999727,1,0.4881337903291454,69.37025,0.015500000000002956,0.015249999999994657,32.52032520325456,0.011168260835993255
MeanVar1,69.53275,69.53275,69.56125,0.028500000000008185,False,0.15175000000000693,0.18025000000001512,1,0.4558186731789695,69.547,0.014250000000004093,0.014250000000004093,35.087719298235534,0.009701221732705993
MeanVar1,69.71300000000001,69.71300000000001,69.74125,0.028249999999985675,False,0.14750000000000796,0.17574999999999363,1,0.4527094539400317,69.72675,0.013749999999987494,0.014499999999998181,35.39823008851352,0.009596897522501292
MeanVar1,69.88875,69.88875,69.91925,0.030500000000003524,False,0.14699999999999136,0.17749999999999488,1,0.47811626989076284,69.90425,0.015500000000002956,0.015000000000000568,32.78688524589785,0.010884354298286167
MeanVar1,70.06625,70.06625,70.09525,0.028999999999996362,False,0.15150000000001285,0.1805000000000092,1,0.45944675548666014,70.0805,0.014250000000004093,0.01474999999999227,34.48275862069398,0.009889388791116647
MeanVar1,70.24675,70.24675,70.27475,0.027999999999991587,False,0.14825000000000443,0.17624999999999602,1,0.44725637967234644,70.26050000000001,0.013750000000001705,0.014249999999989882,35.714285714296444,0.00946045521647667
MeanVar1,70.423,70.423,70.45375,0.030749999999997613,False,0.14624999999999488,0.1769999999999925,1,0.49689122508791794,70.43875,0.015749999999997044,0.015000000000000568,32.52032520325456,0.011301377352716262
MeanVar1,70.6,70.6,70.62925,0.02925000000000466,False,0.15175000000000693,0.1810000000000116,1,0.46274154898448644,70.61425,0.014250000000004093,0.015000000000000568,34.18803418802874,0.01004614935692131
MeanVar1,70.781,70.781,70.8085,0.0274999999999892,False,0.1490000000000009,0.1764999999999901,1,0.44985028636811997,70.7945,0.013499999999993406,0.013999999999995794,36.36363636365064,0.00934566989573183
MeanVar1,70.9575,70.9575,70.98775,0.030250000000009436,False,0.14649999999998897,0.1767499999999984,1,0.4815088601633397,70.973,0.015500000000002956,0.01475000000000648,33.05785123965911,0.010787104074930484
MeanVar1,71.13425,71.13425,71.16425,0.030000000000001137,False,0.15050000000000807,0.1805000000000092,1,0.4684363866867188,71.1485,0.014250000000004093,0.015749999999997044,33.33333333333207,0.010388730036388943
MeanVar1,71.31475,71.31475,71.3425,0.0277499999999975,False,0.15024999999999977,0.17799999999999727,1,0.4503059693053879,71.32875,0.013999999999995794,0.013750000000001705,36.036036036039285,0.009396313370228396
MeanVar1,71.49275,71.49275,71.52275,0.030000000000001137,False,0.14624999999999488,0.17624999999999602,1,0.48777263943746696,71.50775,0.015000000000000568,0.015000000000000568,33.33333333333207,0.010796284827106263
MeanVar1,71.669,71.669,71.6995,0.030500000000003524,False,0.149249999999995,0.17974999999999852,1,0.47636417493249433,71.6835,0.014499999999998181,0.016000000000005343,32.78688524589785,0.010775933512279554
MeanVar1,71.84875,71.84875,71.8765,0.0277499999999975,False,0.15200000000000102,0.17974999999999852,1,0.4523380952953463,71.86275,0.014000000000010004,0.013749999999987494,36.036036036039285,0.009414512841171728
MeanVar1,72.0285,72.0285,72.05725,0.028750000000002274,False,0.14700000000000557,0.17575000000000784,1,0.46361345734813897,72.04225,0.013750000000001705,0.015000000000000568,34.78260869564942,0.009969714218862285
MeanVar1,72.20425,72.20425,72.235,0.030749999999997613,False,0.14775000000000205,0.17849999999999966,1,0.480642273300265,72.2195,0.015249999999994657,0.015500000000002956,32.52032520325456,0.01098740833419569
MeanVar1,72.38275,72.38275,72.41125,0.028499999999993975,False,0.15200000000000102,0.180499999999995,1,0.46074144459686256,72.397,0.014250000000004093,0.014249999999989882,35.087719298253035,0.009782741790021046
MeanVar1,72.56325,72.56325,72.59175,0.028500000000008185,False,0.14849999999999852,0.1770000000000067,1,0.46469229695990893,72.57725,0.014000000000010004,0.014499999999998181,35.087719298235534,0.009911145371549591
MeanVar1,72.74025,72.74025,72.771,0.030749999999997613,False,0.14650000000000318,0.1772500000000008,1,0.5003999123719552,72.756,0.015749999999997044,0.015000000000000568,32.52032520325456,0.01134102446755554
MeanVar1,72.9175,72.9175,72.94725,0.029749999999992838,False,0.15099999999999625,0.18074999999998909,1,0.4666562844430471,72.93175000000001,0.014250000000004093,0.015499999999988745,33.613445378159355,0.010294546579959955
MeanVar1,73.09825,73.09825,73.126,0.02775000000001171,False,0.15075000000000216,0.17850000000001387,1,0.45083684275009783,73.11225,0.014000000000010004,0.013750000000001705,36.03603603602083,0.009388082099866328
MeanVar1,73.27675,73.27675,73.30625,0.02949999999999875,False,0.14699999999999136,0.1764999999999901,1,0.4718725166149641,73.2915,0.01474999999999227,0.01475000000000648,33.8983050847472,0.010336742921105504
MeanVar1,73.45325,73.45325,73.484,0.030749999999997613,False,0.14875000000000682,0.17950000000000443,1,0.4796409525041775,73.468,0.01475000000000648,0.015999999999991132,32.52032520325456,0.010954235713403945
MeanVar1,73.63275,73.63275,73.661,0.028249999999999886,False,0.1522499999999951,0.180499999999995,1,0.4589791534368318,73.64675,0.013999999999995794,0.014250000000004093,35.398230088495716,0.009681628967061982
MeanVar1,73.81325,73.81325,73.84175,0.028500000000008185,False,0.14824999999999022,0.1767499999999984,1,0.4708649997438721,73.82725,0.014000000000010004,0.014499999999998181,35.087719298235534,0.010022515077657801
MeanVar1,73.99,73.99,74.02025,0.030250000000009436,False,0.14724999999999966,0.1775000000000091,1,0.480825181097774,74.0055,0.015500000000002956,0.01475000000000648,33.05785123965911,0.01082868970060971
MeanVar1,74.1675,74.1675,74.1975,0.030000000000001137,False,0.15074999999998795,0.18074999999998909,1,0.4674311112955205,74.182,0.014499999999998181,0.015500000000002956,33.33333333333207,0.010369884635665008
MeanVar1,74.34825,74.34825,74.376,0.02775000000001171,False,0.15124999999999034,0.17900000000000205,1,0.4509918194546112,74.36225,0.014000000000010004,0.013750000000001705,36.03603603602083,0.009394627650190697
MeanVar1,74.52725,74.52725,74.5565,0.02925000000000466,False,0.14724999999999966,0.17650000000000432,1,0.47135404769995437,74.54175000000001,0.014500000000012392,0.01474999999999227,34.18803418802874,0.01026712802190153
MeanVar1,74.70375,74.70375,74.73425,0.030500000000003524,False,0.1487499999999926,0.17924999999999613,1,0.47639395569849996,74.7185,0.01475000000000648,0.015749999999997044,32.78688524589785,0.01085900595488741
MeanVar1,74.883,74.883,74.91225,0.02925000000000466,False,0.15174999999999272,0.18099999999999739,1,0.47970077302937075,74.89725,0.014250000000004093,0.015000000000000568,34.18803418802874,0.010365882164132286
MeanVar1,75.064,75.064,75.09175,0.02775000000001171,False,0.14974999999999739,0.1775000000000091,1,0.4526449193506627,75.07775,0.013750000000001705,0.014000000000010004,36.03603603602083,0.009466325142094665
MeanVar1,75.2415,75.2415,75.27175,0.030249999999995225,False,0.14700000000000557,0.1772500000000008,1,0.47712458994176987,75.257,0.015500000000002956,0.01474999999999227,33.05785123967464,0.010668072105440643
MeanVar1,75.41875,75.41875,75.44925,0.030500000000003524,False,0.14974999999998317,0.1802499999999867,1,0.4722313427790208,75.43325,0.014499999999998181,0.016000000000005343,32.78688524589785,0.010673377995280384
MeanVar1,75.59899999999999,75.59899999999999,75.62675,0.02775000000001171,False,0.1527499999999975,0.1805000000000092,1,0.45578330921986754,75.61275,0.013750000000015916,0.013999999999995794,36.03603603602083,0.00947187395613079
MeanVar1,75.7795,75.7795,75.80775,0.028249999999999886,False,0.14849999999999852,0.1767499999999984,1,0.45813138589464336,75.79325,0.013750000000001705,0.014499999999998181,35.398230088495716,0.009747826347672066
MeanVar1,75.95625,75.95625,75.98725,0.03100000000000591,False,0.14724999999999966,0.17825000000000557,1,0.49002705843856204,75.97225,0.016000000000005343,0.015000000000000568,32.25806451612288,0.011210620319029604
MeanVar1,76.1345,76.1345,76.1645,0.030000000000001137,False,0.15075000000000216,0.1807500000000033,1,0.4739091591883572,76.14875,0.014250000000004093,0.015749999999997044,33.33333333333207,0.010539620502598187
MeanVar1,76.31525,76.31525,76.343,0.0277499999999975,False,0.1525000000000034,0.1802500000000009,1,0.4517450453671194,76.32900000000001,0.013750000000001705,0.013999999999995794,36.036036036039285,0.009395889891125171
MeanVar1,76.4955,76.4955,76.524,0.028499999999993975,False,0.14849999999999852,0.1769999999999925,1,0.4591795416058043,76.50925000000001,0.013750000000001705,0.01474999999999227,35.087719298253035,0.009828412160977183
MeanVar1,76.6725,76.6725,76.70325,0.030749999999997613,False,0.14750000000000796,0.17825000000000557,1,0.48235124634829185,76.6885,0.016000000000005343,0.01474999999999227,32.52032520325456,0.010989570350322882
MeanVar1,76.85075,76.85075,76.8805,0.029749999999992838,False,0.15099999999999625,0.18074999999998909,1,0.46746886931780773,76.865,0.014249999999989882,0.015500000000002956,33.613445378159355,0.010301104924500948
MeanVar1,77.0315,77.0315,77.05975,0.028249999999999886,False,0.15175000000000693,0.18000000000000682,1,0.46791877412497007,77.04575,0.014250000000004093,0.013999999999995794,35.398230088495716,0.009826920754458103
MeanVar1,77.2115,77.2115,77.2405,0.028999999999996362,False,0.14799999999999613,0.1769999999999925,1,0.4692369400552717,77.2255,0.013999999999995794,0.015000000000000568,34.48275862069398,0.010150815418931574
MeanVar1,77.3885,77.3885,77.41925,0.030750000000011823,False,0.14799999999999613,0.17875000000000796,1,0.4802011035985227,77.40425,0.015750000000011255,0.015000000000000568,32.52032520323953,0.010982733985799003
MeanVar1,77.56725,77.56725,77.597,0.029749999999992838,False,0.15125000000000455,0.18099999999999739,1,0.4682744923418859,77.5815,0.014250000000004093,0.015499999999988745,33.613445378159355,0.0103070007860699
MeanVar1,77.74825,77.74825,77.77600000000001,0.02775000000001171,False,0.1522499999999951,0.18000000000000682,1,0.4523531138676866,77.76225,0.013999999999995794,0.013750000000015916,36.03603603602083,0.009416156674778908
MeanVar1,77.92825,77.92825,77.957,0.028749999999988063,False,0.14850000000001273,0.1772500000000008,1,0.4661116117702583,77.94225,0.013999999999995794,0.01474999999999227,34.78260869566662,0.010047637971969146
MeanVar1,78.1055,78.1055,78.1365,0.0309999999999917,False,0.14775000000000205,0.17874999999999375,1,0.4976127318246302,78.1215,0.015999999999991132,0.015000000000000568,32.258064516137665,0.011400101435454968
MeanVar1,78.28425,78.28425,78.314,0.029749999999992838,False,0.15125000000000455,0.18099999999999739,1,0.47444999415798195,78.2985,0.014250000000004093,0.015499999999988745,33.613445378159355,0.010474606304543502
MeanVar1,78.46525,78.46525,78.49275,0.02750000000000341,False,0.1530000000000058,0.1805000000000092,1,0.4527431663956465,78.479,0.013750000000001705,0.013750000000001705,36.363636363631855,0.009370253170584129
MeanVar1,78.64575,78.64575,78.67425,0.028499999999993975,False,0.14875000000000682,0.1772500000000008,1,0.4594885568550817,78.65950000000001,0.013750000000001705,0.01474999999999227,35.087719298253035,0.009837017161894003
MeanVar1,78.82300000000001,78.82300000000001,78.85375,0.030749999999997613,False,0.14774999999998784,0.17849999999998545,1,0.48401139806592713,78.839,0.015999999999991132,0.01475000000000648,32.52032520325456,0.010997168854011466
MeanVar1,79.0015,79.0015,79.03175,0.030250000000009436,False,0.15024999999999977,0.1805000000000092,1,0.4738959846988082,79.01575,0.014250000000004093,0.016000000000005343,33.05785123965911,0.010615921139425399
MeanVar1,79.182,79.182,79.2105,0.028499999999993975,False,0.1527499999999975,0.18124999999999147,1,0.4696361661795837,79.19625,0.014250000000004093,0.014249999999989882,35.087719298253035,0.009907665769044359
MeanVar1,79.36325,79.36325,79.39175,0.028500000000008185,False,0.1495000000000033,0.17800000000001148,1,0.4731439944143998,79.37725,0.014000000000010004,0.014499999999998181,35.087719298235534,0.010057495816277053
MeanVar1,79.54125,79.54125,79.5715,0.030249999999995225,False,0.14825000000000443,0.17849999999999966,1,0.4760597243648379,79.55675000000001,0.015500000000002956,0.01474999999999227,33.05785123967464,0.010647378815098332
MeanVar1,79.71975,79.71975,79.75025,0.030499999999989313,False,0.1492500000000092,0.17974999999999852,1,0.4772025951796108,79.7345,0.01474999999999227,0.015749999999997044,32.786885245913126,0.01084855536520697
MeanVar1,79.8995,79.8995,79.92825,0.028750000000002274,False,0.1527499999999975,0.18149999999999977,1,0.46219756866559725,79.9135,0.013999999999995794,0.01475000000000648,34.78260869564942,0.009878646583635521
MeanVar1,80.081,80.081,80.10875,0.0277499999999975,False,0.15125000000000455,0.17900000000000205,1,0.4549744822366338,80.09475,0.013750000000001705,0.013999999999995794,36.036036036039285,0.009493174466010619
MeanVar1,80.26,80.26,80.2895,0.02949999999999875,False,0.14799999999999613,0.17749999999999488,1,0.47435022922568787,80.27475,0.01474999999999227,0.01475000000000648,33.8983050847472,0.010404660693029812
MeanVar1,80.4375,80.4375,80.46875,0.03125,False,0.14849999999999852,0.17974999999999852,1,0.49200214806125636,80.453,0.015500000000002956,0.015749999999997044,32.0,0.011360531940642519
MeanVar1,80.61725,80.61725,80.64675,0.02949999999999875,False,0.15175000000000693,0.18125000000000568,1,0.4704640410922734,80.6315,0.014250000000004093,0.015249999999994657,33.8983050847472,0.010319843277627416
MeanVar1,80.7985,80.7985,80.82625,0.0277499999999975,False,0.1532499999999999,0.18099999999999739,1,0.453651451705284,80.8125,0.013999999999995794,0.013750000000001705,36.036036036039285,0.009436097042895
MeanVar1,80.9795,80.9795,81.00775,0.028249999999999886,False,0.14999999999999147,0.17824999999999136,1,0.4591672528028302,80.99325,0.013750000000001705,0.014499999999998181,35.398230088495716,0.009762680895924447
MeanVar1,81.15775,81.15775,81.188,0.030250000000009436,False,0.14799999999999613,0.17825000000000557,1,0.4812857914449161,81.17325,0.015500000000002956,0.01475000000000648,33.05785123965911,0.010774946980753923
MeanVar1,81.336,81.336,81.36675,0.030749999999997613,False,0.1495000000000033,0.1802500000000009,1,0.47820898711271964,81.35075,0.01475000000000648,0.015999999999991132,32.52032520325456,0.01089093033800882
MeanVar1,81.51625,81.51625,81.54525,0.028999999999996362,False,0.1525000000000034,0.18149999999999977,1,0.48214020428324744,81.5305,0.014250000000004093,0.01474999999999227,34.48275862069398,0.01034406997181796
MeanVar1,81.69775,81.69775,81.7255,0.0277499999999975,False,0.1525000000000034,0.1802500000000009,1,0.4571208875738361,81.71175,0.013999999999995794,0.013750000000001705,36.036036036039285,0.009529379463953528
MeanVar1,81.878,81.878,81.907,0.028999999999996362,False,0.1490000000000009,0.17799999999999727,1,0.464179980725832,81.89225,0.014250000000004093,0.01474999999999227,34.48275862069398,0.01004414826851998
MeanVar1,82.056,82.056,82.08675,0.030749999999997613,False,0.14800000000001035,0.17875000000000796,1,0.4864608452574021,82.072,0.016000000000005343,0.01474999999999227,32.52032520325456,0.011071285233575224
MeanVar1,82.23475,82.23475,82.265,0.030249999999995225,False,0.15075000000000216,0.18099999999999739,1,0.472425194434684,82.249,0.014249999999989882,0.016000000000005343,33.05785123967464,0.010593055818719239
MeanVar1,82.41575,82.41575,82.444,0.028249999999999886,False,0.15349999999999397,0.18174999999999386,1,0.46135835082349724,82.42975,0.013999999999995794,0.014250000000004093,35.398230088495716,0.009706695104336648
MeanVar1,82.5975,82.5975,82.6255,0.028000000000005798,False,0.15149999999999864,0.17950000000000443,1,0.4681390695671891,82.61125,0.013750000000001705,0.014250000000004093,35.71428571427832,0.009837839185153935
MeanVar1,82.777,82.777,82.80625,0.02925000000000466,False,0.149249999999995,0.17849999999999966,1,0.47393099516615345,82.7915,0.014499999999998181,0.01475000000000648,34.18803418802874,0.010343256023213008
MeanVar1,82.9555,82.9555,82.98625,0.030749999999997613,False,0.14825000000000443,0.17900000000000205,1,0.48244612863674186,82.97125,0.015749999999997044,0.015000000000000568,32.52032520325456,0.011006262570305467
MeanVar1,83.1345,83.1345,83.1645,0.030000000000001137,False,0.15099999999999625,0.18099999999999739,1,0.4707653363058293,83.14875,0.014250000000004093,0.015749999999997044,33.33333333333207,0.010472521665648151
MeanVar1,83.3155,83.3155,83.3435,0.028000000000005798,False,0.15350000000000819,0.18150000000001398,1,0.4600023938169505,83.3295,0.013999999999995794,0.014000000000010004,35.71428571427832,0.009620017831529938
MeanVar1,83.49700000000001,83.49700000000001,83.525,0.027999999999991587,False,0.15099999999999625,0.17899999999998784,1,0.45930974873488395,83.51075,0.013749999999987494,0.014250000000004093,35.714285714296444,0.009671522311604603
MeanVar1,83.676,83.676,83.70575,0.029749999999992838,False,0.14875000000000682,0.17849999999999966,1,0.48989552915668766,83.691,0.015000000000000568,0.01474999999999227,33.613445378159355,0.010805698976756473
MeanVar1,83.8545,83.8545,83.8855,0.0309999999999917,False,0.14875000000000682,0.17974999999999852,1,0.4907544798849198,83.87025,0.015749999999997044,0.015249999999994657,32.258064516137665,0.011264926757784963
MeanVar1,84.03425,84.03425,84.064,0.029749999999992838,False,0.15150000000001285,0.18125000000000568,1,0.4681677926005938,84.0485,0.014250000000004093,0.015499999999988745,33.613445378159355,0.010341533897022023
MeanVar1,84.2155,84.2155,84.2435,0.027999999999991587,False,0.15350000000000819,0.18149999999999977,1,0.45680888213754267,84.2295,0.013999999999995794,0.013999999999995794,35.714285714296444,0.009550246927635777
MeanVar1,84.397,84.397,84.425,0.027999999999991587,False,0.15149999999999864,0.17949999999999022,1,0.4545324319048435,84.41075000000001,0.013750000000001705,0.014249999999989882,35.714285714296444,0.009571682860767488
MeanVar1,84.5765,84.5765,84.60600000000001,0.02950000000001296,False,0.1487499999999926,0.17825000000000557,1,0.47511611740809573,84.59125,0.01475000000000648,0.01475000000000648,33.89830508473087,0.010426200605288436
MeanVar1,84.75475,84.75475,84.78575,0.0309999999999917,False,0.14850000000001273,0.17950000000000443,1,0.4961208106637733,84.7705,0.015749999999997044,0.015249999999994657,32.258064516137665,0.011373810533671808
MeanVar1,84.93425,84.93425,84.9645,0.030249999999995225,False,0.15099999999999625,0.18124999999999147,1,0.4751733587558432,84.94875,0.014499999999998181,0.015749999999997044,33.05785123967464,0.010596872081779483
MeanVar1,85.1155,85.1155,85.14375,0.028249999999999886,False,0.15375000000000227,0.18200000000000216,1,0.45528408252360053,85.12950000000001,0.014000000000010004,0.014249999999989882,35.398230088495716,0.00958006671538425
MeanVar1,85.2975,85.2975,85.32525,0.0277499999999975,False,0.15200000000000102,0.17974999999999852,1,0.4545321486237372,85.31125,0.013750000000001705,0.013999999999995794,36.036036036039285,0.009504282780050855
MeanVar1,85.47725,85.47725,85.5065,0.02925000000000466,False,0.1490000000000009,0.17825000000000557,1,0.47163458866734154,85.4915,0.014250000000004093,0.015000000000000568,34.18803418802874,0.010266923759041126
MeanVar1,85.6555,85.6555,85.68625,0.030749999999997613,False,0.1490000000000009,0.17974999999999852,1,0.48328080785982985,85.67150000000001,0.016000000000005343,0.01474999999999227,32.52032520325456,0.011025377872432615
MeanVar1,85.83525,85.83525,85.86575,0.030500000000003524,False,0.15024999999999977,0.1807500000000033,1,0.4857157548279303,85.85000000000001,0.01475000000000648,0.015749999999997044,32.78688524589785,0.010967703539211789
MeanVar1,86.016,86.016,86.04475,0.028749999999988063,False,0.1532499999999999,0.18199999999998795,1,0.46327081582885954,86.03025,0.014249999999989882,0.014499999999998181,34.78260869566662,0.009890934166719904
MeanVar1,86.198,86.198,86.22575,0.02775000000001171,False,0.1529999999999916,0.1807500000000033,1,0.45400498000750333,86.212,0.014000000000010004,0.013750000000001705,36.03603603602083,0.009462590319542953
MeanVar1,86.37875,86.37875,86.4075,0.028750000000002274,False,0.1495000000000033,0.17825000000000557,1,0.46412146022411527,86.39275,0.014000000000010004,0.01474999999999227,34.78260869564942,0.009970988746723832
MeanVar1,86.557,86.557,86.58775,0.030749999999997613,False,0.14825000000000443,0.17900000000000205,1,0.48604781789461615,86.57275,0.015749999999997044,0.015000000000000568,32.52032520325456,0.01099799219477821
MeanVar1,86.736,86.736,86.76675,0.030749999999997613,False,0.1495000000000033,0.1802500000000009,1,0.47897679053344333,86.75075,0.01474999999999227,0.016000000000005343,32.52032520325456,0.0109129279084511
MeanVar1,86.91625,86.91625,86.94575,0.02949999999999875,False,0.1524999999999892,0.18199999999998795,1,0.4860144136602863,86.93075,0.014499999999998181,0.015000000000000568,33.8983050847472,0.010535067696102402
MeanVar1,87.09825,87.09825,87.126,0.02775000000001171,False,0.15349999999999397,0.18125000000000568,1,0.45835247167222604,87.11225,0.014000000000010004,0.013750000000001705,36.03603603602083,0.009548540630264037
MeanVar1,87.2795,87.2795,87.30799999999999,0.028499999999993975,False,0.15075000000000216,0.17924999999999613,1,0.45876397689077925,87.29350000000001,0.014000000000010004,0.01449999999998397,35.087719298253035,0.00978144478131242
MeanVar1,87.45875,87.45875,87.48875,0.030000000000001137,False,0.1490000000000009,0.17900000000000205,1,0.48092412724293276,87.474,0.015250000000008868,0.01474999999999227,33.33333333333207,0.010676045136481984
MeanVar1,87.63775,87.63775,87.6685,0.030749999999997613,False,0.1492500000000092,0.18000000000000682,1,0.48237681008303257,87.653,0.015250000000008868,0.015499999999988745,32.52032520325456,0.011052664311488925
MeanVar1,87.81775,87.81775,87.8475,0.029749999999992838,False,0.15149999999999864,0.18124999999999147,1,0.46612275662502,87.83200000000001,0.014250000000004093,0.015499999999988745,33.613445378159355,0.010315347291061143
MeanVar1,87.999,87.999,88.0275,0.028500000000008185,False,0.1529999999999916,0.18149999999999977,1,0.47751145888568125,88.013,0.014000000000010004,0.014499999999998181,35.087719298235534,0.010095701011316375
MeanVar1,88.1805,88.1805,88.2085,0.028000000000005798,False,0.15174999999999272,0.17974999999999852,1,0.4524728712428987,88.19425,0.013750000000001705,0.014250000000004093,35.71428571427832,0.009515516898654666
MeanVar1,88.36025,88.36025,88.38975,0.02950000000001296,False,0.1489999999999867,0.17849999999999966,1,0.47263269354742343,88.37475,0.014500000000012392,0.015000000000000568,33.89830508473087,0.010360402437147179
MeanVar1,88.53875,88.53875,88.5695,0.030750000000011823,False,0.1490000000000009,0.17975000000001273,1,0.48337181706758947,88.5545,0.015750000000011255,0.015000000000000568,32.52032520323953,0.01104913431105691
MeanVar1,88.7185,88.7185,88.74875,0.030249999999995225,False,0.15075000000000216,0.18099999999999739,1,0.4750890453492774,88.73275,0.014249999999989882,0.016000000000005343,33.05785123967464,0.010666633488991441
MeanVar1,88.8995,88.8995,88.928,0.028499999999993975,False,0.1532499999999999,0.18174999999999386,1,0.46585025128412216,88.9135,0.013999999999995794,0.014499999999998181,35.087719298253035,0.009837629269519777
MeanVar1,89.08125,89.08125,89.1095,0.028249999999999886,False,0.1527499999999975,0.18099999999999739,1,0.46923209965518115,89.0955,0.014250000000004093,0.013999999999995794,35.398230088495716,0.009855169276532644
MeanVar1,89.26225,89.26225,89.29075,0.028500000000008185,False,0.15024999999999977,0.17875000000000796,1,0.4605256310000222,89.276,0.013750000000001705,0.01475000000000648,35.087719298235534,0.009853213623661709
MeanVar1,89.441,89.441,89.47125,0.030249999999995225,False,0.14875000000000682,0.17900000000000205,1,0.4836135009254654,89.4565,0.015500000000002956,0.01474999999999227,33.05785123967464,0.010839994738709556
MeanVar1,89.62,89.62,89.65075,0.030749999999997613,False,0.1495000000000033,0.1802500000000009,1,0.48085103091199,89.635,0.015000000000000568,0.015749999999997044,32.52032520325456,0.010983829469214586
MeanVar1,89.80025,89.80025,89.82975,0.02949999999999875,False,0.15200000000000102,0.18149999999999977,1,0.4680298764238928,89.8145,0.014249999999989882,0.015250000000008868,33.8983050847472,0.010216336864075554
MeanVar1,89.98175,89.98175,90.01,0.028249999999999886,False,0.15374999999998806,0.18199999999998795,1,0.47108155670242824,89.99575,0.013999999999995794,0.014250000000004093,35.398230088495716,0.009883723256074693
MeanVar1,90.16375,90.16375,90.19175,0.028000000000005798,False,0.15175000000000693,0.17975000000001273,1,0.4628442151454728,90.1775,0.013750000000001705,0.014250000000004093,35.71428571427832,0.009745658735029538
MeanVar1,90.3435,90.3435,90.37299999999999,0.02949999999998454,False,0.1492500000000092,0.17874999999999375,1,0.4704277594946954,90.358,0.014499999999998181,0.014999999999986358,33.89830508476353,0.010306175249310583
MeanVar1,90.52225,90.52225,90.55275,0.030500000000003524,False,0.1490000000000009,0.17950000000000443,1,0.4849399033706595,90.538,0.015749999999997044,0.01475000000000648,32.78688524589785,0.011030954345971533
MeanVar1,90.70175,90.70175,90.73200000000001,0.030250000000009436,False,0.15074999999998795,0.18099999999999739,1,0.4745826900225781,90.71600000000001,0.014250000000004093,0.016000000000005343,33.05785123965911,0.010653123683513285
MeanVar1,90.88275,90.88275,90.91125,0.028499999999993975,False,0.1532499999999999,0.18174999999999386,1,0.4645567454153437,90.89675,0.013999999999995794,0.014499999999998181,35.087719298253035,0.009855910781951775
MeanVar1,91.0645,91.0645,91.09275,0.028249999999999886,False,0.1525000000000034,0.1807500000000033,1,0.46920386622069277,91.07875,0.014250000000004093,0.013999999999995794,35.398230088495716,0.009860813836292663
MeanVar1,91.24525,91.24525,91.274,0.028750000000002274,False,0.15049999999999386,0.17924999999999613,1,0.4645800419644368,91.25925000000001,0.014000000000010004,0.01474999999999227,34.78260869564942,0.009975340141566183
MeanVar1,91.4245,91.4245,91.45475,0.030250000000009436,False,0.1487499999999926,0.17900000000000205,1,0.48371909073809044,91.43975,0.015250000000008868,0.015000000000000568,33.05785123965911,0.010827562998281165
MeanVar1,91.6035,91.6035,91.63425,0.030749999999997613,False,0.1495000000000033,0.1802500000000009,1,0.4811256300752614,91.6185,0.015000000000000568,0.015749999999997044,32.52032520325456,0.011006340784462365
MeanVar1,91.78375,91.78375,91.81325,0.02949999999999875,False,0.15225000000000932,0.18175000000000807,1,0.47136438421247784,91.798,0.014250000000004093,0.015249999999994657,33.8983050847472,0.010304125670105376
MeanVar1,91.9655,91.9655,91.99325,0.0277499999999975,False,0.15399999999999636,0.18174999999999386,1,0.4595156887128733,91.97925000000001,0.013750000000001705,0.013999999999995794,36.036036036039285,0.009530765430760424
MeanVar1,92.14725,92.14725,92.1755,0.028249999999999886,False,0.15175000000000693,0.18000000000000682,1,0.47458861668673036,92.16125,0.013999999999995794,0.014250000000004093,35.398230088495716,0.009987897905001203
MeanVar1,92.32725,92.32725,92.3565,0.02924999999999045,False,0.1495000000000033,0.17874999999999375,1,0.47012850802457135,92.3415,0.014249999999989882,0.015000000000000568,34.18803418804535,0.010244168986178756
MeanVar1,92.506,92.506,92.53675,0.030749999999997613,False,0.14875000000000682,0.17950000000000443,1,0.4849386797331738,92.52175,0.015749999999997044,0.015000000000000568,32.52032520325456,0.011042799070551754
MeanVar1,92.6855,92.6855,92.71600000000001,0.030500000000003524,False,0.15024999999998556,0.18074999999998909,1,0.47722105960547867,92.7,0.014499999999998181,0.016000000000005343,32.78688524589785,0.010798239249168444
MeanVar1,92.86625,92.86625,92.89525,0.029000000000010573,False,0.1527499999999833,0.18174999999999386,1,0.46588091276721844,92.8805,0.014250000000004093,0.01475000000000648,34.48275862067708,0.010014800009395732
MeanVar1,93.04799999999999,93.04799999999999,93.07625,0.028250000000014097,False,0.1529999999999916,0.18125000000000568,1,0.4704558468496411,93.06225,0.014250000000018304,0.013999999999995794,35.39823008847791,0.009918143841014998
MeanVar1,93.22925,93.22925,93.258,0.028750000000002274,False,0.15075000000000216,0.17950000000000443,1,0.469658403577383,93.24325,0.014000000000010004,0.01474999999999227,34.78260869564942,0.010057167816356433
MeanVar1,93.40875,93.40875,93.43875,0.030000000000001137,False,0.149249999999995,0.17924999999999613,1,0.47990781105338637,93.42375,0.015000000000000568,0.015000000000000568,33.33333333333207,0.01064218010239417
MeanVar1,93.588,93.588,93.61875,0.030750000000011823,False,0.1490000000000009,0.17975000000001273,1,0.48411037380092653,93.6035,0.015500000000002956,0.015250000000008868,32.52032520323953,0.011072229065206737
MeanVar1,93.76775,93.76775,93.79799999999999,0.030249999999981014,False,0.15100000000001046,0.18124999999999147,1,0.4743336202908699,93.782,0.014249999999989882,0.015999999999991132,33.05785123969017,0.010595107816422405
MeanVar1,93.949,93.949,93.9775,0.028500000000008185,False,0.1529999999999916,0.18149999999999977,1,0.46146974073469865,93.96300000000001,0.014000000000010004,0.014499999999998181,35.087719298235534,0.00977733411179842
MeanVar1,94.1305,94.1305,94.15899999999999,0.028499999999993975,False,0.15200000000001523,0.1805000000000092,1,0.47499872703835627,94.14475,0.014250000000004093,0.014249999999989882,35.087719298253035,0.010072834223807557
MeanVar1,94.311,94.311,94.34025,0.02924999999999045,False,0.14974999999999739,0.17899999999998784,1,0.4750211567955407,94.32525,0.014249999999989882,0.015000000000000568,34.18803418804535,0.010319412610318029
MeanVar1,94.49,94.49,94.5205,0.030500000000003524,False,0.149249999999995,0.17974999999999852,1,0.48453670677910754,94.50575,0.015750000000011255,0.01474999999999227,32.78688524589785,0.01094288822203511
MeanVar1,94.66975,94.66975,94.70075,0.03100000000000591,False,0.149249999999995,0.1802500000000009,1,0.4827205437115071,94.68475000000001,0.01500000000001478,0.015999999999991132,32.25806451612288,0.0110702143397376
MeanVar1,94.85,94.85,94.8795,0.02949999999999875,False,0.15225000000000932,0.18175000000000807,1,0.46790499935386665,94.86425,0.014250000000004093,0.015249999999994657,33.8983050847472,0.010232400969685317
MeanVar1,95.03175,95.03175,95.05975,0.027999999999991587,False,0.15375000000000227,0.18174999999999386,1,0.45763718725057195,95.04575,0.013999999999995794,0.013999999999995794,35.714285714296444,0.009604478795991838
MeanVar1,95.2135,95.2135,95.24175,0.028249999999999886,False,0.15200000000000102,0.1802500000000009,1,0.4706375492449719,95.2275,0.014000000000010004,0.014249999999989882,35.398230088495716,0.009939888137158733
MeanVar1,95.39375,95.39375,95.42299999999999,0.02924999999999045,False,0.15050000000000807,0.17974999999999852,1,0.47248278812064803,95.40825,0.014499999999998181,0.01474999999999227,34.18803418804535,0.01028330725756815
MeanVar1,95.5735,95.5735,95.604,0.030500000000003524,False,0.1495000000000033,0.18000000000000682,1,0.4867433475904663,95.589,0.015500000000002956,0.015000000000000568,32.78688524589785,0.010973740352896307
MeanVar1,95.7535,95.7535,95.78425,0.030749999999997613,False,0.1495000000000033,0.1802500000000009,1,0.484016920794468,95.7685,0.015000000000000568,0.015749999999997044,32.52032520325456,0.011062625749736587
MeanVar1,95.93375,95.93375,95.96375,0.030000000000001137,False,0.15174999999999272,0.18174999999999386,1,0.4738035431576706,95.94800000000001,0.014250000000004093,0.015749999999997044,33.33333333333207,0.010508458097877862
MeanVar1,96.1155,96.1155,96.14375,0.028249999999999886,False,0.15375000000000227,0.18200000000000216,1,0.4573644707320934,96.12975,0.014250000000004093,0.013999999999995794,35.398230088495716,0.009643951204578758
MeanVar1,96.2975,96.2975,96.32575,0.028249999999999886,False,0.1532499999999999,0.18149999999999977,1,0.47690920878431253,96.31175,0.014250000000004093,0.013999999999995794,35.398230088495716,0.010019941611365605
MeanVar1,96.479,96.479,96.50725,0.028249999999999886,False,0.15125000000000455,0.17950000000000443,1,0.4614833736265179,96.49275,0.013750000000001705,0.014499999999998181,35.398230088495716,0.009812500656622456
MeanVar1,96.6585,96.6585,96.6885,0.030000000000001137,False,0.14949999999998909,0.17949999999999022,1,0.4805450510057807,96.6735,0.015000000000000568,0.015000000000000568,33.33333333333207,0.010656472965694183
MeanVar1,96.838,96.838,96.86875,0.030750000000011823,False,0.1492499999999808,0.1799999999999926,1,0.483432952488401,96.8535,0.015500000000002956,0.015250000000008868,32.52032520323953,0.01105186011897769
MeanVar1,97.01799999999999,97.01799999999999,97.0485,0.030500000000017735,False,0.15075000000000216,0.1812500000000199,1,0.47849082328197423,97.0325,0.014500000000012392,0.016000000000005343,32.78688524588257,0.010790441087999142
MeanVar1,97.19925,97.19925,97.22825,0.028999999999996362,False,0.1529999999999916,0.18199999999998795,1,0.4696959182520669,97.21325,0.013999999999995794,0.015000000000000568,34.48275862069398,0.010123796366294052
MeanVar1,97.38125,97.38125,97.4095,0.028249999999999886,False,0.15349999999999397,0.18174999999999386,1,0.476773686936854,97.39525,0.014000000000010004,0.014249999999989882,35.398230088495716,0.00999472863920604
MeanVar1,97.56299999999999,97.56299999999999,97.59100000000001,0.02800000000002001,False,0.1519999999999868,0.18000000000000682,1,0.45585515495449336,97.57675,0.013750000000015916,0.014250000000004093,35.71428571426019,0.009606963546556276
MeanVar1,97.743,97.743,97.7725,0.02949999999999875,False,0.1497500000000116,0.17925000000001035,1,0.47424089539684616,97.75750000000001,0.014500000000012392,0.014999999999986358,33.8983050847472,0.010383905047961448
MeanVar1,97.92225,97.92225,97.95299999999999,0.0307499999999834,False,0.14900000000001512,0.17974999999999852,1,0.48788159938129627,97.938,0.015749999999997044,0.014999999999986358,32.520325203269586,0.0111054328990191
MeanVar1,98.102,98.102,98.1325,0.030499999999989313,False,0.15024999999999977,0.18074999999998909,1,0.4802240526436073,98.11675,0.01474999999999227,0.015749999999997044,32.786885245913126,0.010892756381891917
MeanVar1,98.28275,98.28275,98.3125,0.02975000000000705,False,0.15200000000000102,0.18175000000000807,1,0.48602555740018,98.297,0.014250000000004093,0.015500000000002956,33.6134453781433,0.010640993390182709
MeanVar1,98.4645,98.4645,98.49275,0.028249999999999886,False,0.15399999999999636,0.18224999999999625,1,0.47140933768736126,98.47875,0.014250000000004093,0.013999999999995794,35.398230088495716,0.009891958955727743
MeanVar1,98.64675,98.64675,98.6745,0.0277499999999975,False,0.1527500000000117,0.1805000000000092,1,0.45274149456779617,98.6605,0.013750000000001705,0.013999999999995794,36.036036036039285,0.0094550049678986
MeanVar1,98.82725,98.82725,98.85625,0.028999999999996362,False,0.15049999999999386,0.17949999999999022,1,0.46723275242272966,98.8415,0.014249999999989882,0.01475000000000648,34.48275862069398,0.010102171790417083
MeanVar1,99.00675,99.00675,99.03725,0.030500000000003524,False,0.149249999999995,0.17974999999999852,1,0.4842779809581139,99.02225,0.015500000000002956,0.015000000000000568,32.78688524589785,0.010904046001069147
MeanVar1,99.1865,99.1865,99.21725,0.030750000000011823,False,0.149249999999995,0.18000000000000682,1,0.4826447842340038,99.20175,0.015250000000008868,0.015500000000002956,32.52032520323953,0.011046432638310004
MeanVar1,99.3665,99.3665,99.39675,0.030249999999995225,False,0.15149999999999864,0.18174999999999386,1,0.47257356581630217,99.381,0.014499999999998181,0.015749999999997044,33.05785123967464,0.010531335579172761
